"sep=	"
Shimmer_6749_TimestampSync_Unix_CAL	Shimmer_6749_ECG_EMG_Status1_CAL	Shimmer_6749_EMG_CH1_24BIT_CAL	Shimmer_6749_EMG_CH2_24BIT_CAL	
ms	no_units	mV	mV	
1.7391554121558562E12	128.0	3.4264024209661192	12.478989062188752	
1.7391554121578093E12	128.0	3.5332385937259905	12.472666399399408	
1.7391554121597625E12	128.0	3.773595941892776	12.461679871282563	
1.7391554121617153E12	128.0	3.776504847586733	12.471512453338995	
1.7391554121636685E12	128.0	3.7077969759063296	12.485888698008303	
1.7391554121656216E12	128.0	3.7089028408808917	12.49742815861243	
1.7391554121675747E12	128.0	3.6004559517450274	12.506755889267431	
1.7391554121695276E12	128.0	3.3265380056545744	12.509592673332612	
1.7391554121714807E12	128.0	3.3390871690615618	12.499110996617198	
1.7391554121734338E12	128.0	3.4149591225336935	12.490792968765057	
1.739155412175387E12	128.0	3.40914131114578	12.484205860003534	
1.7391554121773398E12	128.0	3.537686094167164	12.476681170067927	
1.739155412179293E12	128.0	3.777803036904697	12.469060317960619	
1.739155412181246E12	128.0	3.745420425584367	12.483797170773805	
1.739155412183199E12	128.0	3.7129176115494107	12.491730549939142	
1.739155412185152E12	128.0	3.691064758030346	12.501466969823873	
1.7391554121871052E12	128.0	3.6731305130080996	12.507260740668862	
1.7391554121890583E12	128.0	3.423469474729237	12.520963850136262	
1.7391554121910112E12	128.0	3.3125223691291454	12.517381809240398	
1.7391554121929644E12	128.0	3.3699792667205255	12.506731848724506	
1.7391554121949175E12	128.0	3.4050303783055598	12.500865956250742	
1.7391554121968706E12	128.0	3.4447934363039456	12.496009766579839	
1.7391554121988235E12	128.0	3.7016906780033128	12.479902602819912	
1.7391554122007766E12	128.0	3.792083119402304	12.485119400634694	
1.7391554122027297E12	128.0	3.7256590992998	12.498053212728486	
1.7391554122046829E12	128.0	3.7040226106670633	12.511876524910512	
1.7391554122066357E12	128.0	3.6859922034731154	12.519377174303195	
1.7391554122085889E12	128.0	3.4081316083429187	12.532575432369164	
1.739155412210542E12	128.0	3.3122338826140423	12.525916201978866	
1.739155412212495E12	128.0	3.383441970758673	12.517093322725295	
1.739155412214448E12	128.0	3.4127473925845693	12.508727213787303	
1.7391554122164011E12	128.0	3.4391919898023593	12.50442395660368	
1.7391554122183542E12	128.0	3.6992145020820106	12.492211360797647	
1.7391554122203074E12	128.0	3.772970887776719	12.49697138829685	
1.7391554122222603E12	128.0	3.738568870850667	12.50473648366171	
1.7391554122242134E12	128.0	3.6867374603037986	12.519665660818298	
1.7391554122261665E12	128.0	3.6880837307076133	12.530123296990787	
1.7391554122281196E12	128.0	3.552350825351575	12.54000396013307	
1.7391554122300725E12	128.0	3.309397098548861	12.54625450129364	
1.7391554122320256E12	128.0	3.325672546109265	12.534691000146587	
1.7391554122339788E12	128.0	3.397217201854849	12.524257404517023	
1.7391554122359316E12	128.0	3.4116655681529324	12.517814539013052	
1.7391554122378848E12	128.0	3.5580484340248626	12.509376308446285	
1.739155412239838E12	128.0	3.777226063874491	12.501154442765845	
1.739155412241791E12	128.0	3.738640992479443	12.511828443824662	
1.739155412243744E12	128.0	3.699983799455619	12.528272175185542	
1.739155412245697E12	128.0	3.6880837307076133	12.539354865474088	
1.7391554122476501E12	128.0	3.533935769470823	12.550509677391412	
1.7391554122496033E12	128.0	3.2993000705202506	12.553995556115575	
1.7391554122515562E12	128.0	3.3177391669439276	12.541807000852467	
1.7391554122535093E12	128.0	3.398731756059141	12.5335610946291	
1.7391554122554624E12	128.0	3.4213058258659634	12.530243499705414	
1.7391554122574155E12	128.0	3.5823053418364537	12.522430323254703	
1.7391554122593684E12	128.0	3.7284958833649817	12.517429890326248	
1.7391554122613215E12	128.0	3.7645086166670265	12.522814971941507	
1.7391554122632747E12	128.0	3.703253313293455	12.535051608290466	
1.7391554122652278E12	128.0	3.692242744633684	12.552432920825433	
1.7391554122671807E12	128.0	3.671615958803808	12.55945275935961	
1.7391554122691338E12	128.0	3.361973765926413	12.57132878756469	
1.739155412271087E12	128.0	3.3047813143072107	12.560967313563902	
1.73915541227304E12	128.0	3.3584878872022497	12.549836542189505	
1.739155412274993E12	128.0	3.3952218367920524	12.541951244110018	
1.739155412276946E12	128.0	3.431859624210154	12.53767202746932	
1.7391554122788992E12	128.0	3.7041187728387643	12.521372539365991	
1.7391554122808523E12	128.0	3.759123535051767	12.526493175009072	
1.7391554122828052E12	128.0	3.684309365468347	12.539931838504295	
1.7391554122847583E12	128.0	3.676351945760085	12.55356282634292	
1.7391554122867114E12	128.0	3.6488495646535832	12.560895191935126	
1.7391554122886643E12	128.0	3.3497611701203787	12.572891422854832	
1.7391554122906174E12	128.0	3.297328746000379	12.566160070835759	
1.7391554122925706E12	128.0	3.3730804967578845	12.559885489132265	
1.7391554122945237E12	128.0	3.408323932686321	12.548105623098886	
1.7391554122964766E12	128.0	3.4153437712204977	12.547913298755484	
1.7391554122984297E12	128.0	3.585358490787962	12.539234662759462	
1.7391554123003828E12	128.0	3.7612871839150412	12.534811202861214	
1.739155412302336E12	128.0	3.711018408658315	12.545316920119555	
1.7391554123042888E12	128.0	3.6740440536392596	12.560270137819069	
1.739155412306242E12	128.0	3.67226505346279	12.568059273726854	
1.739155412308195E12	128.0	3.4733295607562336	12.580728639848468	
1.7391554123101482E12	128.0	3.2832650283890996	12.582483599482012	
1.739155412312101E12	128.0	3.329446911348531	12.573300112084562	
1.7391554123140542E12	128.0	3.3904137282069997	12.564909962603645	
1.7391554123160073E12	128.0	3.3978662965138313	12.558635380900151	
1.7391554123179604E12	128.0	3.583507368982717	12.5470718797531	
1.7391554123199133E12	128.0	3.7446270876678334	12.5425041765973	
1.7391554123218665E12	128.0	3.6994789480541885	12.553947475029725	
1.7391554123238196E12	128.0	3.6624565119492822	12.568852611643388	
1.7391554123257727E12	128.0	3.655580916672657	12.577988017954988	
1.7391554123277256E12	128.0	3.456741586137802	12.58863797847088	
1.7391554123296787E12	128.0	3.2702110135806817	12.589214951501086	
1.7391554123316318E12	128.0	3.3171621939137212	12.579622774873906	
1.739155412333585E12	128.0	3.3705081586648813	12.57128070647884	
1.7391554123355378E12	128.0	3.3769269836259266	12.570078679332576	
1.739155412337491E12	128.0	3.4348406515328866	12.561568327137033	
1.739155412339444E12	128.0	3.708734557080415	12.548514312328615	
1.739155412341397E12	128.0	3.7336646000939133	12.560895191935126	
1.73915541234335E12	128.0	3.6722169723769396	12.57315586882701	
1.7391554123453032E12	128.0	3.6688512963674027	12.584262599658482	
1.7391554123472563E12	128.0	3.61617846681815	12.59279699239695	
1.7391554123492092E12	128.0	3.3242781946195996	12.604769182773731	
1.7391554123511624E12	128.0	3.2955497458239096	12.59640307383574	
1.7391554123531155E12	128.0	3.356324238338976	12.58950343801619	
1.7391554123550686E12	128.0	3.388514525315904	12.580247828989963	
1.7391554123570215E12	128.0	3.4581840187133177	12.569718071188698	
1.7391554123589746E12	128.0	3.725178288441295	12.556351529322251	
1.7391554123609277E12	128.0	3.72748618056212	12.567097652009844	
1.7391554123628809E12	128.0	3.6743325401543627	12.578396707184718	
1.7391554123648337E12	128.0	3.6694523099405343	12.591979613937491	
1.7391554123667869E12	128.0	3.6021147492068706	12.598302276726836	
1.73915541236874E12	128.0	3.305430408966193	12.608615669641773	
1.739155412370693E12	128.0	3.2998530030075317	12.599961074188679	
1.739155412372646E12	128.0	3.3369716012841386	12.596114587320637	
1.739155412374599E12	128.0	3.3961353774232124	12.5881812081553	
1.7391554123765522E12	128.0	3.4126031493270177	12.582267234595685	
1.7391554123785054E12	128.0	3.62440033249859	12.566544719522563	
1.7391554123804583E12	128.0	3.7525123857473197	12.565294611290449	
1.7391554123824114E12	128.0	3.6971710559333633	12.57863711261397	
1.7391554123843645E12	128.0	3.6791406487394154	12.589888086702993	
1.7391554123863176E12	128.0	3.6584657818236885	12.599023493014593	
1.7391554123882705E12	128.0	3.4261620155368666	12.611284169906478	
1.7391554123902236E12	128.0	3.2780722711172428	12.609120521043204	
1.7391554123921768E12	128.0	3.341467182811163	12.60051400667596	
1.73915541239413E12	128.0	3.3822159030694845	12.593229722169605	
1.7391554123960828E12	128.0	3.3944284988755187	12.587796559468496	
1.739155412398036E12	128.0	3.623462751324505	12.573540517513814	
1.739155412399989E12	128.0	3.74296829020599	12.574598301402526	
1.739155412401942E12	128.0	3.6802705542569027	12.587508072953392	
1.739155412403895E12	128.0	3.6579849709651833	12.60010531744623	
1.7391554124058481E12	128.0	3.6538740381249633	12.608615669641773	
1.7391554124078013E12	128.0	3.408540297572648	12.621669684450191	
1.7391554124097542E12	128.0	3.270331216295308	12.620804224904882	
1.7391554124117073E12	128.0	3.2945400430210485	12.61654904880711	
1.7391554124136604E12	128.0	3.3684406719733087	12.608134858783268	
1.7391554124156135E12	128.0	3.3911349444947576	12.599504303873099	
1.7391554124175664E12	128.0	3.476839480023322	12.594503870944644	
1.7391554124195195E12	128.0	3.72383201803748	12.58447896454481	
1.7391554124214727E12	128.0	3.708566273279938	12.594431749315868	
1.7391554124234258E12	128.0	3.6603890252577096	12.605730804490742	
1.7391554124253787E12	128.0	3.655580916672657	12.617967440839701	
1.7391554124273318E12	128.0	3.5529037578388563	12.629074171671173	
1.739155412429285E12	128.0	3.28651050168401	12.637704726581342	
1.739155412431238E12	128.0	3.300958867982094	12.628713563527294	
1.739155412433191E12	128.0	3.3627430633000213	12.620034927531274	
1.739155412435144E12	128.0	3.3725275642706034	12.61193326456546	
1.7391554124370972E12	128.0	3.4737622905288883	12.603687358342095	
1.7391554124390503E12	128.0	3.7248657613832665	12.591570924707762	
1.7391554124410032E12	128.0	3.707195962333198	12.602196844680728	
1.7391554124429563E12	128.0	3.652383524463597	12.614072872885808	
1.7391554124449094E12	128.0	3.6481043078229	12.62431414417197	
1.7391554124468625E12	128.0	3.5362436615916484	12.632776415281663	
1.7391554124488154E12	128.0	3.378153051315115	12.64030110521727	
1.7391554124507686E12	128.0	3.2536230389622496	12.634026523513777	
1.7391554124527217E12	128.0	3.3322356143278618	12.628208712125863	
1.7391554124546746E12	128.0	3.3752681861640834	12.620587860018555	
1.7391554124566277E12	128.0	3.395390120592529	12.618015521925551	
1.7391554124585808E12	128.0	3.6513497811178106	12.604047966485973	
1.739155412460534E12	128.0	3.729818113225871	12.607125155980407	
1.7391554124624868E12	128.0	3.6713755533745553	12.621357157392163	
1.73915541246444E12	128.0	3.654018281382515	12.63472369925861	
1.739155412466393E12	128.0	3.6245205352132164	12.642729200052722	
1.7391554124683462E12	128.0	3.36219013081274	12.65304259296766	
1.739155412470299E12	128.0	3.2709081893255143	12.646551646377839	
1.7391554124722522E12	128.0	3.340649804351704	12.63710371300821	
1.7391554124742053E12	128.0	3.366445306910512	12.630925293476418	
1.7391554124761584E12	128.0	3.401207931980443	12.626405671406468	
1.7391554124781113E12	128.0	3.6632258093228907	12.613015088997097	
1.7391554124800645E12	128.0	3.7245772748681634	12.616573089350036	
1.7391554124820176E12	128.0	3.6508930108022306	12.630372360989137	
1.7391554124839707E12	128.0	3.6639229850677233	12.6452774976028	
1.7391554124859236E12	128.0	3.6561819302457885	12.651287633334116	
1.7391554124878767E12	128.0	3.514366767529659	12.661625066791979	
1.7391554124898298E12	128.0	3.2809571362682743	12.663572350768925	
1.739155412491783E12	128.0	3.3046851521355096	12.652056930707724	
1.7391554124937358E12	128.0	3.3546414003342075	12.645541943574978	
1.739155412495689E12	128.0	3.3802205380066876	12.642416672994694	
1.739155412497642E12	128.0	3.5169150650797367	12.631430144877848	
1.7391554124995952E12	128.0	3.7367898706741975	12.62056381947563	
1.739155412501548E12	128.0	3.691810014861029	12.631213779991521	
1.7391554125035012E12	128.0	3.6384880906527948	12.64436395697164	
1.7391554125054543E12	128.0	3.6498111863705938	12.655013917487532	
1.7391554125074072E12	128.0	3.4898213732029646	12.661504864077353	
1.7391554125093604E12	128.0	3.2567242689996085	12.668116013381802	
1.7391554125113135E12	128.0	3.2887222316331344	12.658331512411218	
1.7391554125132666E12	128.0	3.3515642108397734	12.653835930884194	
1.7391554125152195E12	128.0	3.3676713745997002	12.646623768006615	
1.7391554125171726E12	128.0	3.52131448443506	12.633329347768944	
1.7391554125191257E12	128.0	3.717605517419837	12.625948901090888	
1.7391554125210789E12	128.0	3.6882760550510154	12.640421307931897	
1.7391554125230317E12	128.0	3.636420603961222	12.654893714772905	
1.7391554125249849E12	128.0	3.638800617710823	12.66131253973395	
1.739155412526938E12	128.0	3.62303002155185	12.66701014840724	
1.739155412528891E12	128.0	3.330793181752346	12.680328609187836	
1.739155412530844E12	128.0	3.270499500095785	12.674991608658427	
1.739155412532797E12	128.0	3.3343992631911354	12.665183067144918	
1.7391554125347502E12	128.0	3.353343211016243	12.655086039116307	
1.7391554125367034E12	128.0	3.411521324895381	12.650398133245881	
1.7391554125386562E12	128.0	3.669332107225908	12.634411172200581	
1.7391554125406094E12	128.0	3.7147446928117307	12.638329780697399	
1.7391554125425625E12	128.0	3.6513497811178106	12.653811890341268	
1.7391554125445156E12	128.0	3.6496188620271917	12.663908918369879	
1.7391554125464685E12	128.0	3.5999270598006716	12.671241283962086	
1.7391554125484216E12	128.0	3.3139888422475865	12.684944393429486	
1.7391554125503748E12	128.0	3.260739039668128	12.680232447016135	
1.739155412552328E12	128.0	3.321802018698297	12.668909351298336	
1.7391554125542808E12	128.0	3.365002874334996	12.662995377738719	
1.739155412556234E12	128.0	3.398395188458187	12.654797552601204	
1.739155412558187E12	128.0	3.6776020539921985	12.638161496896922	
1.7391554125601401E12	128.0	3.7103212329134823	12.648643173612337	
1.739155412562093E12	128.0	3.6839247167815428	12.658812323269723	
1.7391554125640461E12	128.0	3.643248118151997	12.673717459883388	
1.7391554125659993E12	128.0	3.6328385630653575	12.68020840647321	
1.7391554125679521E12	128.0	3.4606361540916946	12.691483421105158	
1.7391554125699053E12	128.0	3.2491514979781506	12.691579583276859	
1.7391554125718584E12	128.0	3.309469220177637	12.678357284667964	
1.7391554125738115E12	128.0	3.3543529138191044	12.672611594908826	
1.7391554125757644E12	128.0	3.372311199384276	12.664990742801516	
1.7391554125777175E12	128.0	3.5580243934819373	12.655254322916784	
1.7391554125796707E12	128.0	3.7151774225843854	12.64979711967275	
1.7391554125816238E12	128.0	3.6614708496893464	12.665207107687843	
1.7391554125835767E12	128.0	3.6320211846058985	12.675760906032036	
1.7391554125855298E12	128.0	3.63353573881019	12.68614642057575	
1.739155412587483E12	128.0	3.443086557756252	12.69674830000579	
1.739155412589436E12	128.0	3.254031728191979	12.696868502720417	
1.739155412591389E12	128.0	3.307545976743616	12.687877339666368	
1.739155412593342E12	128.0	3.3563001977960507	12.682348014793558	
1.7391554125952952E12	128.0	3.3772635512268803	12.676842730463672	
1.7391554125972483E12	128.0	3.57648753044854	12.661961634392933	
1.7391554125992012E12	128.0	3.6889251497099975	12.657081404179104	
1.7391554126011543E12	128.0	3.703373516008081	12.667202472750642	
1.7391554126031074E12	128.0	3.627958332851529	12.68076133896049	
1.7391554126050605E12	128.0	3.6214193051758574	12.691291096761756	
1.7391554126070134E12	128.0	3.583699693326119	12.696844462177491	
1.7391554126089666E12	128.0	3.2784328792611217	12.711557274447753	
1.7391554126109197E12	128.0	3.269417675664148	12.705811584688615	
1.7391554126128728E12	128.0	3.322763640415308	12.692613326622645	
1.7391554126148257E12	128.0	3.348703386231667	12.686314704376226	
1.7391554126167788E12	128.0	3.4053669459065135	12.683285595967643	
1.739155412618732E12	128.0	3.672625661606669	12.668572783697382	
1.7391554126206848E12	128.0	3.6776741756209743	12.67578494657496	
1.739155412622638E12	128.0	3.603941830469191	12.689223610070183	
1.739155412624591E12	128.0	3.615889980303047	12.697878205523278	
1.7391554126265442E12	128.0	3.5448020948730425	12.707326138892906	
1.739155412628497E12	128.0	3.2687204999193153	12.719779140128193	
1.7391554126304502E12	128.0	3.2469397680290264	12.71177363933408	
1.7391554126324033E12	128.0	3.3210086807817634	12.702349746507377	
1.7391554126343564E12	128.0	3.359786076520214	12.696820421634566	
1.7391554126363093E12	128.0	3.413348406157701	12.691435340019307	
1.7391554126382625E12	128.0	3.564106650842029	12.683165393253017	
1.7391554126402156E12	128.0	3.6885645415661186	12.681891244477978	
1.7391554126421687E12	128.0	3.6260110488745827	12.695474151230751	
1.7391554126441216E12	128.0	3.603052330380956	12.70670108477685	
1.7391554126460747E12	128.0	3.5908878156607726	12.71867327515363	
1.7391554126480278E12	128.0	3.3697148207483476	12.730837789873814	
1.739155412649981E12	128.0	3.2267937930576553	12.730933952045515	
1.7391554126519338E12	128.0	3.287039393628366	12.722038951163167	
1.739155412653887E12	128.0	3.3253600190512365	12.711052423046322	
1.73915541265584E12	128.0	3.3563963599677518	12.70766270649386	
1.7391554126577932E12	128.0	3.5724246786941705	12.691098772418353	
1.739155412659746E12	128.0	3.6977239884206443	12.6908583669891	
1.7391554126616992E12	128.0	3.62896803565439	12.702566111393704	
1.7391554126636523E12	128.0	3.597571086593996	12.71583649108845	
1.7391554126656055E12	128.0	3.608581655253767	12.723289059395281	
1.7391554126675583E12	128.0	3.3692580504327676	12.734011141539948	
1.7391554126695115E12	128.0	3.2303998744964453	12.733121641451714	
1.7391554126714646E12	128.0	3.2995404759495033	12.719803180671118	
1.7391554126734175E12	128.0	3.336009979567128	12.713384355710073	
1.7391554126753706E12	128.0	3.331995208898609	12.715139315343617	
1.7391554126773237E12	128.0	3.4184930823437076	12.70953786884203	
1.7391554126792769E12	128.0	3.659403362997774	12.697469516293548	
1.7391554126812297E12	128.0	3.6432240776090716	12.708287760609917	
1.7391554126831829E12	128.0	3.5882193153960684	12.719346410355538	
1.739155412685136E12	128.0	3.5958882485892274	12.732809114393685	
1.739155412687089E12	128.0	3.508861483199773	12.741752196361883	
1.739155412689042E12	128.0	3.2410257944694116	12.750478913443754	
1.739155412690995E12	128.0	3.238765983434437	12.737064290491457	
1.7391554126929482E12	128.0	3.3050457602793886	12.72872222209639	
1.7391554126949014E12	128.0	3.3364186687968576	12.722760167450925	
1.7391554126968542E12	128.0	3.4177718660559497	12.71679811280546	
1.7391554126988074E12	128.0	3.6554607139580306	12.70035438144458	
1.7391554127007605E12	128.0	3.646637834704459	12.71223040964966	
1.7391554127027136E12	128.0	3.58562293676014	12.722639964736299	
1.7391554127046665E12	128.0	3.5924264104079895	12.734371749683827	
1.7391554127066196E12	128.0	3.4949420088460457	12.747714251007348	
1.7391554127085728E12	128.0	3.24088155121186	12.758676738581268	
1.739155412710526E12	128.0	3.252396971273061	12.749517291726743	
1.7391554127124788E12	128.0	3.3125223691291454	12.740838655730723	
1.739155412714432E12	128.0	3.333173195501947	12.738939452839627	
1.739155412716385E12	128.0	3.3501938998930334	12.734708317284781	
1.7391554127183381E12	128.0	3.5771847061933726	12.720235910443773	
1.739155412720291E12	128.0	3.6463253076464306	12.72004358610037	
1.7391554127222441E12	128.0	3.5786271387688884	12.729371316755373	
1.7391554127241973E12	128.0	3.5640585697561784	12.742689777535968	
1.7391554127261504E12	128.0	3.559827434201332	12.749925980956473	
1.7391554127281033E12	128.0	3.305911219824698	12.766850523175858	
1.7391554127300564E12	128.0	3.221456792528247	12.762234738934207	
1.7391554127320095E12	128.0	3.289419407377967	12.750070224214024	
1.7391554127339624E12	128.0	3.3347598713350144	12.745766967030402	
1.7391554127359155E12	128.0	3.3479100483151334	12.742353209935015	
1.7391554127378687E12	128.0	3.596417140533583	12.72547674880148	
1.7391554127398218E12	128.0	3.668322404423047	12.723529464824534	
1.7391554127417747E12	128.0	3.5907916534890716	12.736992168862681	
1.7391554127437278E12	128.0	3.56694343490721	12.746848791462039	
1.739155412745681E12	128.0	3.574588327557444	12.754565805741048	
1.739155412747634E12	128.0	3.3031946384741433	12.769206496382534	
1.739155412749587E12	128.0	3.223476198133969	12.769398820725936	
1.73915541275154E12	128.0	3.24544925436766	12.765071522999389	
1.7391554127534932E12	128.0	3.321321207839792	12.756657332975546	
1.7391554127554463E12	128.0	3.341467182811163	12.750358710729127	
1.7391554127573992E12	128.0	3.4567175455948767	12.741607953104332	
1.7391554127593523E12	128.0	3.659884173856279	12.73100607367429	
1.7391554127613054E12	128.0	3.620361521287146	12.743915845225157	
1.7391554127632585E12	128.0	3.5610775424334458	12.756921778947724	
1.7391554127652114E12	128.0	3.571246692090832	12.764398387797481	
1.7391554127671646E12	128.0	3.4427499901552983	12.77531279428555	
1.7391554127691177E12	128.0	3.212441588931273	12.780265146128155	
1.7391554127710708E12	128.0	3.2592004449209107	12.76927861801131	
1.7391554127730237E12	128.0	3.314205207133914	12.760792306358692	
1.7391554127749768E12	128.0	3.3363225066251565	12.756513089717995	
1.73915541277693E12	128.0	3.4687618576004335	12.748483548380957	
1.739155412778883E12	128.0	3.669332107225908	12.735381452486688	
1.739155412780836E12	128.0	3.611875209634528	12.745766967030402	
1.739155412782789E12	128.0	3.5693715297426616	12.757017941119425	
1.7391554127847422E12	128.0	3.5704533541742984	12.767860225978719	
1.739155412786695E12	128.0	3.427388083226055	12.783678903223542	
1.7391554127886482E12	128.0	3.2698504054368027	12.791852687818134	
1.7391554127906013E12	128.0	3.219365265293749	12.788030241493015	
1.7391554127925544E12	128.0	3.2925206374153264	12.777308159348348	
1.7391554127945073E12	128.0	3.3163688559971876	12.770865293844377	
1.7391554127964604E12	128.0	3.3345675469916123	12.765287887885716	
1.7391554127984136E12	128.0	3.585791220560617	12.749877899870622	
1.7391554128003667E12	128.0	3.6200489942291174	12.74973365661307	
1.7391554128023196E12	128.0	3.555548217560635	12.763076157936592	
1.7391554128042727E12	128.0	3.5423259189517404	12.776562902517664	
1.7391554128062258E12	128.0	3.5363398237633494	12.786804173803827	
1.739155412808179E12	128.0	3.2489351330918232	12.799762026440545	
1.7391554128101318E12	128.0	3.2075373181745195	12.79242966084834	
1.739155412812085E12	128.0	3.2765817574558764	12.783678903223542	
1.739155412814038E12	128.0	3.3226915187865322	12.775336834828476	
1.7391554128159912E12	128.0	3.33939969611959	12.769903672127366	
1.739155412817944E12	128.0	3.6008165598889064	12.754830251713226	
1.7391554128198972E12	128.0	3.6221405214636153	12.757931481750585	
1.7391554128218503E12	128.0	3.5543702309572973	12.768076590865046	
1.7391554128238035E12	128.0	3.5608852180900437	12.781899903047073	
1.7391554128257563E12	128.0	3.5383592293690715	12.791852687818134	
1.7391554128277095E12	128.0	3.391639795896188	12.803680634937363	
1.7391554128296626E12	128.0	3.1845545591379674	12.80973885175453	
1.7391554128316157E12	128.0	3.2348714154805442	12.800771729243406	
1.7391554128335686E12	128.0	3.297064300028201	12.7888716604954	
1.7391554128355217E12	128.0	3.313483990846156	12.785241538513684	
1.7391554128374749E12	128.0	3.4786184801997915	12.772596212934996	
1.7391554128394277E12	128.0	3.6355551444159127	12.765047482456463	
1.7391554128413809E12	128.0	3.5853104097021116	12.775072388856298	
1.739155412843334E12	128.0	3.5368206346218547	12.78846297126567	
1.739155412845287E12	128.0	3.5235502549271094	12.796612715317336	
1.73915541284724E12	128.0	3.3678877394860276	12.809161878724323	
1.739155412849193E12	128.0	3.1846747618525937	12.81247947364801	
1.7391554128511462E12	128.0	3.2352801047102737	12.801276580644837	
1.7391554128530994E12	128.0	3.296030556682415	12.791708444560582	
1.7391554128550522E12	128.0	3.3131714637881275	12.786996498147229	
1.7391554128570054E12	128.0	3.480902331777692	12.773293388679829	
1.7391554128589585E12	128.0	3.6323096711210017	12.767523658377765	
1.7391554128609116E12	128.0	3.569852340601167	12.782957686935784	
1.7391554128628645E12	128.0	3.5372774049374347	12.797814742463599	
1.7391554128648176E12	128.0	3.531748080064624	12.80344022950811	
1.7391554128667708E12	128.0	3.503572563756215	12.809089757095547	
1.7391554128687239E12	128.0	3.230447955582296	12.823177515249752	
1.7391554128706768E12	128.0	3.2042678043366837	12.816037474000948	
1.73915541287263E12	128.0	3.2825197715584165	12.808560865151192	
1.739155412874583E12	128.0	3.3141811665909886	12.804425891768046	
1.7391554128765361E12	128.0	3.362093968641039	12.796179985544681	
1.739155412878489E12	128.0	3.600143424686999	12.778606348666312	
1.7391554128804421E12	128.0	3.6084614525391405	12.784712646569329	
1.7391554128823953E12	128.0	3.541845108093235	12.796011701744204	
1.7391554128843484E12	128.0	3.531651917892923	12.808705108408743	
1.7391554128863013E12	128.0	3.4919129004374625	12.815869190200472	
1.7391554128882544E12	128.0	3.2246301441943817	12.828346231978683	
1.7391554128902075E12	128.0	3.1983057496912184	12.820893663671852	
1.7391554128921604E12	128.0	3.2740334599057985	12.811181284330045	
1.7391554128941135E12	128.0	3.2973527865433043	12.804089324167093	
1.7391554128960667E12	128.0	3.3467080211688702	12.797838783006524	
1.7391554128980198E12	128.0	3.5994462489421664	12.782380713905578	
1.7391554128999727E12	128.0	3.6038697088404152	12.792045012161536	
1.7391554129019258E12	128.0	3.536556188649677	12.806469337916694	
1.739155412903879E12	128.0	3.5416768242927583	12.816422122687753	
1.739155412905832E12	128.0	3.538936202399278	12.82526904248425	
1.739155412907785E12	128.0	3.3204557482944823	12.837505678833208	
1.739155412909738E12	128.0	3.1863095187715116	12.832096556675024	
1.7391554129116912E12	128.0	3.2495842277508054	12.823009231449275	
1.7391554129136443E12	128.0	3.2918715427563443	12.819114663495382	
1.7391554129155972E12	128.0	3.303459084446321	12.812287149304607	
1.7391554129175503E12	128.0	3.5210019573770315	12.798103228978702	
1.7391554129195034E12	128.0	3.6363484823324463	12.796612715317336	
1.7391554129214565E12	128.0	3.5646836238722353	12.806781864974722	
1.7391554129234094E12	128.0	3.541027729633776	12.819595474353887	
1.7391554129253625E12	128.0	3.5436000677267794	12.83029351595563	
1.7391554129273157E12	128.0	3.313483990846156	12.844525517367385	
1.7391554129292688E12	128.0	3.1850353699964726	12.845559260713172	
1.7391554129312217E12	128.0	3.2535268767905485	12.83267352970523	
1.7391554129331748E12	128.0	3.3043005034487054	12.82349004230778	
1.739155412935128E12	128.0	3.308171030859673	12.818633852636877	
1.739155412937081E12	128.0	3.5261947146488883	12.800723648157556	
1.739155412939034E12	128.0	3.6244484135844406	12.800627485985855	
1.739155412940987E12	128.0	3.601682019434216	12.806853986603498	
1.7391554129429402E12	128.0	3.536676391364303	12.817792433634493	
1.7391554129448933E12	128.0	3.5252090523889525	12.832385043190127	
1.7391554129468462E12	128.0	3.4653000194191956	12.84221762524656	
1.7391554129487993E12	128.0	3.1961661413708695	12.854382139966743	
1.7391554129507524E12	128.0	3.2049649800815163	12.843203287506496	
1.7391554129527053E12	128.0	3.2785050008898975	12.837265273403956	
1.7391554129546584E12	128.0	3.294299637591796	12.827697137319701	
1.7391554129566116E12	128.0	3.368560874687935	12.81988396086899	
1.7391554129585647E12	128.0	3.602811924951703	12.806156810858665	
1.7391554129605176E12	128.0	3.5806465443746105	12.814546960339582	
1.7391554129624707E12	128.0	3.5173718353953167	12.826134502029559	
1.7391554129644238E12	128.0	3.528526647312639	12.837986489691714	
1.739155412966377E12	128.0	3.458304221427944	12.84947786920999	
1.7391554129683298E12	128.0	3.185612343026679	12.859647018867376	
1.739155412970283E12	128.0	3.1983297902341437	12.845270774198069	
1.739155412972236E12	128.0	3.275620135738866	12.839404881724304	
1.7391554129741892E12	128.0	3.302521503272236	12.832697570248156	
1.739155412976142E12	128.0	3.3898367551767934	12.826062380400783	
1.7391554129780952E12	128.0	3.5296805933730515	12.81897042023783	
1.7391554129800483E12	128.0	3.6078123578801584	12.817984757977895	
1.7391554129820015E12	128.0	3.539320851086082	12.829091488809366	
1.7391554129839543E12	128.0	3.525257133474803	12.842530152304588	
1.7391554129859075E12	128.0	3.525521579446981	12.853204153363405	
1.7391554129878606E12	128.0	3.271316878555244	12.867027465545432	
1.7391554129898137E12	128.0	3.1791694775227084	12.865200384283112	
1.7391554129917666E12	128.0	3.2466993625997738	12.853925369651163	
1.7391554129937197E12	128.0	3.273360324703891	12.845318855283919	
1.7391554129956729E12	128.0	3.290958002125184	12.843828341622553	
1.739155412997626E12	128.0	3.531267269206119	12.826615312888064	
1.7391554129995789E12	128.0	3.5925225725796905	12.823682366651182	
1.739155413001532E12	128.0	3.528069876997059	12.836616178744974	
1.739155413003485E12	128.0	3.523045403525679	12.849165342151961	
1.739155413005438E12	128.0	3.509775023830933	12.857218924031924	
1.739155413007391E12	128.0	3.250810295439994	12.874287709508861	
1.7391554130093442E12	128.0	3.1809244371562526	12.870681628070072	
1.7391554130112974E12	128.0	3.246987849114877	12.85632942394369	
1.7391554130132502E12	128.0	3.2921840698143727	12.849405747581214	
1.7391554130152034E12	128.0	3.294948732250778	12.84409278759473	
1.7391554130171565E12	128.0	3.4055352297069903	12.837794165348312	
1.7391554130191096E12	128.0	3.60298020875218	12.826302785830036	
1.7391554130210625E12	128.0	3.5669915159930605	12.838299016749742	
1.7391554130230156E12	128.0	3.5084527939700436	12.851256869386459	
1.7391554130249688E12	128.0	3.5233579305837073	12.863830073336372	
1.7391554130269219E12	128.0	3.401472377952621	12.875898425884854	
1.7391554130288748E12	128.0	3.174096922965478	12.880922899356234	
1.739155413030828E12	128.0	3.2057102369121995	12.869046871151154	
1.739155413032781E12	128.0	3.267061702457472	12.861474100129696	
1.7391554130347341E12	128.0	3.2882895018604796	12.860392275698059	
1.739155413036687E12	128.0	3.4174593389979213	12.84820372043495	
1.7391554130386401E12	128.0	3.6093509526273753	12.834308286624148	
1.7391554130405933E12	128.0	3.5541057849851194	12.845318855283919	
1.7391554130425464E12	128.0	3.508140266912015	12.856305383400764	
1.7391554130444993E12	128.0	3.5178045651679715	12.86688322228788	
1.7391554130464524E12	128.0	3.395919012536885	12.877821669318875	
1.7391554130484055E12	128.0	3.1636152462500626	12.885923332284689	
1.7391554130503586E12	128.0	3.200541520183268	12.876571561086761	
1.7391554130523115E12	128.0	3.2563636608557296	12.86683514120203	
1.7391554130542646E12	128.0	3.2567002284566833	12.866234127628898	
1.7391554130562178E12	128.0	3.303723530418499	12.862964613791062	
1.7391554130581707E12	128.0	3.5446338110725657	12.845294814740994	
1.7391554130601238E12	128.0	3.5893251803706305	12.846256436458004	
1.739155413062077E12	128.0	3.5078036993110615	12.857723775433355	
1.73915541306403E12	128.0	3.5064333883643215	12.870224857754492	
1.739155413065983E12	128.0	3.4892684407156835	12.878735209950035	
1.739155413067936E12	128.0	3.2202547653819837	12.892245995074033	
1.7391554130698892E12	128.0	3.166043341085514	12.88784657571871	
1.7391554130718423E12	128.0	3.2219616439296774	12.879504507323643	
1.7391554130737952E12	128.0	3.258599431347779	12.870729709155922	
1.7391554130757483E12	128.0	3.2924485157865506	12.864575330167055	
1.7391554130777014E12	128.0	3.54684554102169	12.849357666495363	
1.7391554130796545E12	128.0	3.571607300234711	12.853564761507284	
1.7391554130816074E12	128.0	3.50354852321329	12.863397343563717	
1.7391554130835605E12	128.0	3.5018656852085215	12.873542452678178	
1.7391554130855137E12	128.0	3.494509279073391	12.881740277815693	
1.7391554130874668E12	128.0	3.2062631693994805	12.897703198318068	
1.7391554130894197E12	128.0	3.15698005640269	12.893496103306147	
1.7391554130913728E12	128.0	3.22859683377705	12.884000088850668	
1.739155413093326E12	128.0	3.2495121061220296	12.881211385871337	
1.739155413095279E12	128.0	3.263287337218206	12.874431952766413	
1.739155413097232E12	128.0	3.419430663517793	12.863445424649568	
1.739155413099185E12	128.0	3.589084774941378	12.854862950825249	
1.7391554131011382E12	128.0	3.533935769470823	12.86866222246435	
1.7391554131030913E12	128.0	3.50263498258213	12.880826737184533	
1.7391554131050442E12	128.0	3.4972979820527215	12.890755481412667	
1.7391554131069973E12	128.0	3.3326923846434418	12.904434550337141	
1.7391554131089504E12	128.0	3.1456088795990405	12.90804063177593	
1.7391554131109036E12	128.0	3.2010463715846984	12.898616738949228	
1.7391554131128564E12	128.0	3.247180173458279	12.888183143319663	
1.7391554131148096E12	128.0	3.2672059457150238	12.881331588585963	
1.7391554131167627E12	128.0	3.418781568858811	12.86815737106292	
1.7391554131187156E12	128.0	3.5815841255486958	12.861281775786294	
1.7391554131206687E12	128.0	3.5192469977434873	12.871691330872933	
1.7391554131226218E12	128.0	3.4903502651473204	12.884360696994547	
1.739155413124575E12	128.0	3.4854219538476414	12.89205367073063	
1.7391554131265278E12	128.0	3.3180036129161055	12.905636577483405	
1.739155413128481E12	128.0	3.140632487213511	12.910564888783084	
1.739155413130434E12	128.0	3.1603216918693016	12.90662223974334	
1.7391554131323872E12	128.0	3.2303517934105948	12.900299576953996	
1.73915541313434E12	128.0	3.261195809983708	12.891212251728247	
1.7391554131362932E12	128.0	3.295862272881938	12.886548386400746	
1.7391554131382463E12	128.0	3.5350897155312357	12.869720006353061	
1.7391554131401995E12	128.0	3.5449703786735194	12.874888723081993	
1.7391554131421523E12	128.0	3.494244833101213	12.887774454089934	
1.7391554131441055E12	128.0	3.492489873467669	12.89876098220678	
1.7391554131460586E12	128.0	3.4634488976139504	12.904146063822038	
1.7391554131480117E12	128.0	3.179409882951961	12.916046132570044	
1.7391554131499646E12	128.0	3.170370638812062	12.90895417240709	
1.7391554131519177E12	128.0	3.243141362246835	12.90114099595638	
1.7391554131538708E12	128.0	3.2525412145306127	12.893928833078801	
1.739155413155824E12	128.0	3.3050457602793886	12.888111021690888	
1.7391554131577769E12	128.0	3.559995718001809	12.872652952589943	
1.73915541315973E12	128.0	3.5714390164342342	12.880345926326028	
1.739155413161683E12	128.0	3.4961921170781594	12.891765184215528	
1.7391554131636362E12	128.0	3.4891722785439825	12.905324050425376	
1.739155413165589E12	128.0	3.448543761000287	12.915276835196435	
1.7391554131675422E12	128.0	3.293482259132337	12.92607103896988	
1.7391554131694954E12	128.0	3.1352474055982515	12.928907823035061	
1.7391554131714482E12	128.0	3.194098654679297	12.917151997544607	
1.7391554131734014E12	128.0	3.2445837948223506	12.908256996662258	
1.7391554131753545E12	128.0	3.258407107004377	12.904458590880067	
1.7391554131773076E12	128.0	3.462871924583744	12.88835142712014	
1.7391554131792605E12	128.0	3.5865364773913	12.885394440340333	
1.7391554131812136E12	128.0	3.5167948623651104	12.895323184568467	
1.7391554131831667E12	128.0	3.487008629680709	12.909122456207568	
1.7391554131851199E12	128.0	3.4916484544652846	12.9164788623427	
1.7391554131870728E12	128.0	3.2700908108660554	12.932730269360178	
1.739155413189026E12	128.0	3.1409690548144646	12.933764012705964	
1.739155413190979E12	128.0	3.2071045884018647	12.92150333581408	
1.7391554131929321E12	128.0	3.247540781602158	12.914892186509631	
1.739155413194885E12	128.0	3.263936431877188	12.909338821093895	
1.7391554131968381E12	128.0	3.478714642371493	12.890515075983414	
1.7391554131987913E12	128.0	3.5882193153960684	12.887053237802176	
1.7391554132007444E12	128.0	3.50674591542235	12.901309279756857	
1.7391554132026973E12	128.0	3.5013127527212404	12.916911592115355	
1.7391554132046504E12	128.0	3.4996539552593973	12.927249025573218	
1.7391554132066035E12	128.0	3.434768529904111	12.935110283109779	
1.7391554132085566E12	128.0	3.162629583990127	12.944101446163828	
1.7391554132105095E12	128.0	3.1779914909193705	12.935999783198014	
1.7391554132124626E12	128.0	3.2396554835226716	12.925421944310898	
1.7391554132144158E12	128.0	3.2471320923724285	12.917608767860187	
1.739155413216369E12	128.0	3.3341348172189575	12.9098196319524	
1.7391554132183218E12	128.0	3.567688691737893	12.895491468368943	
1.739155413220275E12	128.0	3.5474225140518962	12.902318982559718	
1.739155413222228E12	128.0	3.486215291764175	12.915276835196435	
1.739155413224181E12	128.0	3.489412683973235	12.928715498691659	
1.739155413226134E12	128.0	3.424190691016995	12.936240188627266	
1.7391554132280872E12	128.0	3.16835123320634	12.949510568322012	
1.7391554132300403E12	128.0	3.1726064093041115	12.941529108070824	
1.7391554132319932E12	128.0	3.229029563549705	12.932441782845075	
1.7391554132339463E12	128.0	3.2484302816903927	12.921479295271155	
1.7391554132358994E12	128.0	3.3381255473445512	12.914675821623304	
1.7391554132378525E12	128.0	3.5492015142283657	12.90118907704223	
1.7391554132398054E12	128.0	3.5476148383952983	12.91114186181329	
1.7391554132417585E12	128.0	3.485494075476417	12.919339686950806	
1.7391554132437117E12	128.0	3.4858787241632214	12.929388633893566	
1.7391554132456648E12	128.0	3.48116677774987	12.94164931078545	
1.7391554132476177E12	128.0	3.242540348673703	12.95571302839673	
1.7391554132495708E12	128.0	3.1398391492969773	12.951770379356986	
1.739155413251524E12	128.0	3.19484391150998	12.9438850812775	
1.739155413253477E12	128.0	3.241963375643497	12.933715931620114	
1.73915541325543E12	128.0	3.258863877319957	12.925710430826001	
1.739155413257383E12	128.0	3.4767192773086957	12.91068509149771	
1.7391554132593362E12	128.0	3.5540096228134184	12.909170537293418	
1.7391554132612893E12	128.0	3.490037738089292	12.922633241331567	
1.7391554132632422E12	128.0	3.4796041424597277	12.935278566910256	
1.7391554132651953E12	128.0	3.4653961815908967	12.945159230052539	
1.7391554132671484E12	128.0	3.2203990086395353	12.962877110188458	
1.7391554132691016E12	128.0	3.1324827431618463	12.96210781281485	
1.7391554132710544E12	128.0	3.194916033138756	12.947154595115336	
1.7391554132730076E12	128.0	3.23859769963396	12.938115350975437	
1.7391554132749607E12	128.0	3.2476850248597096	12.93388421542059	
1.7391554132769136E12	128.0	3.5043178205868983	12.915685524426165	
1.7391554132788667E12	128.0	3.5548270012728773	12.914050767507247	
1.7391554132808198E12	128.0	3.4876336837967656	12.927152863401517	
1.739155413282773E12	128.0	3.465780830277701	12.937057567086725	
1.7391554132847258E12	128.0	3.4763346286218915	12.947779649231393	
1.739155413286679E12	128.0	3.368296428715757	12.959727799065249	
1.739155413288632E12	128.0	3.1269293777461105	12.965281164480984	
1.7391554132905852E12	128.0	3.159360070152291	12.955304339167	
1.739155413292538E12	128.0	3.2279717796609932	12.948717230405478	
1.7391554132944912E12	128.0	3.219629711265927	12.94200991892933	
1.7391554132964443E12	128.0	3.352549873099709	12.932297539587523	
1.7391554132983975E12	128.0	3.5541298255280447	12.921335052013603	
1.7391554133003503E12	128.0	3.52359833601296	12.930927228640783	
1.7391554133023035E12	128.0	3.467439627739544	12.946481459913429	
1.7391554133042566E12	128.0	3.4774404935964536	12.954270595821214	
1.7391554133062097E12	128.0	3.342933655929604	12.963958934620095	
1.7391554133081626E12	128.0	3.116207295601443	12.971171097497674	
1.7391554133101157E12	128.0	3.151066082843075	12.960473055895932	
1.7391554133120688E12	128.0	3.213787859335088	12.952780082159848	
1.739155413314022E12	128.0	3.225495603739691	12.946529540999279	
1.7391554133159749E12	128.0	3.364185495875537	12.936312310256042	
1.739155413317928E12	128.0	3.552230622636949	12.925253660510421	
1.739155413319881E12	128.0	3.5366283102784526	12.933090877504057	
1.7391554133218342E12	128.0	3.471069749721259	12.94484670299451	
1.739155413323787E12	128.0	3.4554193562769124	12.95708333934347	
1.7391554133257402E12	128.0	3.445466571505853	12.965064799594657	
1.7391554133276934E12	128.0	3.1802513019543452	12.979224679377637	
1.7391554133296465E12	128.0	3.1098365517262483	12.974801219479389	
1.7391554133315994E12	128.0	3.1939784519646706	12.965497529367312	
1.7391554133335525E12	128.0	3.230183509610118	12.956915055542993	
1.7391554133355056E12	128.0	3.257661850173694	12.948933595291805	
1.7391554133374585E12	128.0	3.51035199686114	12.934653512794199	
1.7391554133394116E12	128.0	3.5382630671973705	12.93749029685938	
1.7391554133413647E12	128.0	3.4719592498094936	12.947419041087514	
1.7391554133433179E12	128.0	3.4639297084724556	12.960569218067633	
1.7391554133452708E12	128.0	3.4388313816584803	12.97165190835618	
1.7391554133472239E12	128.0	3.169529219809678	12.985018450222626	
1.739155413349177E12	128.0	3.1170727551467525	12.978070733317224	
1.7391554133511301E12	128.0	3.19890676326435	12.972733732787816	
1.739155413353083E12	128.0	3.224197414421727	12.962925191274309	
1.7391554133550361E12	128.0	3.245978146312016	12.956410204141562	
1.7391554133569893E12	128.0	3.384547835733235	12.953357055190054	
1.7391554133589424E12	128.0	3.550403541374629	12.945447716567642	
1.7391554133608953E12	128.0	3.489749251574189	12.957972839431704	
1.7391554133628484E12	128.0	3.4583282619708693	12.970930692068421	
1.7391554133648015E12	128.0	3.453279747956564	12.982277828329146	
1.7391554133667546E12	128.0	3.3040600980194528	12.994754870107357	
1.7391554133687075E12	128.0	3.10586986214358	12.999010046205129	
1.7391554133706606E12	128.0	3.144286649738151	12.986100274654262	
1.7391554133726138E12	128.0	3.20347446642015	12.977205273771915	
1.739155413374567E12	128.0	3.230183509610118	12.971459584012777	
1.7391554133765198E12	128.0	3.3926735392419745	12.961025988383213	
1.739155413378473E12	128.0	3.5415325810352067	12.95434271744999	
1.739155413380426E12	128.0	3.4836910347570225	12.966459151084322	
1.7391554133823792E12	128.0	3.4547702616179303	12.9758590033681	
1.739155413384332E12	128.0	3.456573302337325	12.984609760992896	
1.7391554133862852E12	128.0	3.279731068579086	12.997543573086688	
1.7391554133882383E12	128.0	3.1006530643287973	13.001678546469833	
1.7391554133901912E12	128.0	3.163543124621287	12.987494626143928	
1.7391554133921443E12	128.0	3.208234493919352	12.977998611688449	
1.7391554133940974E12	128.0	3.2301354285242674	12.974104043734556	
1.7391554133960505E12	128.0	3.2692734324065964	12.972589489530264	
1.7391554133980034E12	128.0	3.516866983993886	12.95383786604856	
1.7391554133999565E12	128.0	3.5296565528301262	12.961819326299747	
1.7391554134019097E12	128.0	3.4631123300129967	12.97626769259783	
1.7391554134038628E12	128.0	3.4690984252013872	12.987422504515152	
1.7391554134058157E12	128.0	3.4245272586179487	12.997495492000837	
1.7391554134077688E12	128.0	3.1504650692699436	13.009804249978572	
1.739155413409722E12	128.0	3.130896067328779	13.003794114247256	
1.739155413411675E12	128.0	3.20164738515783	12.993697086218646	
1.739155413413628E12	128.0	3.2124896700171237	12.98595603139671	
1.739155413415581E12	128.0	3.2620612695290174	12.97621961151198	
1.7391554134175342E12	128.0	3.51674678127926	12.960641339696409	
1.7391554134194873E12	128.0	3.5071786451950047	12.968238151260792	
1.7391554134214402E12	128.0	3.439456435774537	12.98047478760975	
1.7391554134233933E12	128.0	3.4407786656354267	12.992182532014354	
1.7391554134253464E12	128.0	3.410151013948641	13.002519965472217	
1.7391554134272996E12	128.0	3.131833648502864	13.014660439649475	
1.7391554134292524E12	128.0	3.1091393759814157	13.006799182112914	
1.7391554134312056E12	128.0	3.1795300856665873	12.999779343578737	
1.7391554134331587E12	128.0	3.1908772219273116	12.997711856887165	
1.7391554134351118E12	128.0	3.205037101710292	12.99266334287286	
1.7391554134370647E12	128.0	3.406136243280122	12.974656976221837	
1.7391554134390178E12	128.0	3.5278294715678062	12.970137354151888	
1.739155413440971E12	128.0	3.4725843039255504	12.982854801359352	
1.7391554134429238E12	128.0	3.4458031391068067	12.993889410562048	
1.739155413444877E12	128.0	3.4440481794732625	13.000356316608944	
1.73915541344683E12	128.0	3.239415078093419	13.01595862896744	
1.7391554134487832E12	128.0	3.0998356858693383	13.018963696833097	
1.739155413450736E12	128.0	3.1631584759344826	13.009756168892721	
1.7391554134526892E12	128.0	3.2000366687818373	12.998384992089072	
1.7391554134546423E12	128.0	3.2047005341093384	12.991701721155849	
1.7391554134565955E12	128.0	3.4140215413596082	12.981676814756014	
1.7391554134585483E12	128.0	3.535185877702937	12.978407300918178	
1.7391554134605015E12	128.0	3.475373006904881	12.990499694009586	
1.7391554134624546E12	128.0	3.4415960440948856	13.005284627908622	
1.7391554134644077E12	128.0	3.450442963891383	13.011823655584294	
1.7391554134663606E12	128.0	3.229269968978958	13.02737788685694	
1.7391554134683137E12	128.0	3.098441334379673	13.029132846490484	
1.7391554134702668E12	128.0	3.162196854217472	13.017953994030236	
1.73915541347222E12	128.0	3.2017195067866058	13.013963263904643	
1.7391554134741729E12	128.0	3.208210453376427	13.006174127996857	
1.739155413476126E12	128.0	3.27783186568799	12.99951489760656	
1.739155413478079E12	128.0	3.5068901586799015	12.98316732841738	
1.7391554134800322E12	128.0	3.496432522507412	12.992879707759187	
1.739155413481985E12	128.0	3.4475580987403514	13.003962398047733	
1.7391554134839382E12	128.0	3.4477504230837535	13.01732893991418	
1.7391554134858914E12	128.0	3.3732006994725108	13.025334440708292	
1.7391554134878445E12	128.0	3.110341403127679	13.035768036337856	
1.7391554134897974E12	128.0	3.118394985007642	13.022545737728962	
1.7391554134917505E12	128.0	3.177847247661819	13.015237412679681	
1.7391554134937036E12	128.0	3.1993875741228552	13.009443641834693	
1.7391554134956567E12	128.0	3.2867989881991133	13.002135316785413	
1.7391554134976096E12	128.0	3.515304348703744	12.986484923341067	
1.7391554134995627E12	128.0	3.4987644551711625	12.997399329829136	
1.7391554135015159E12	128.0	3.4323404350686593	13.009251317491291	
1.7391554135034688E12	128.0	3.4424855441831204	13.020261886151062	
1.7391554135054219E12	128.0	3.367815617857252	13.02975790060654	
1.739155413507375E12	128.0	3.117673768719884	13.041730090983323	
1.7391554135093281E12	128.0	3.1010617535585268	13.041177158496042	
1.739155413511281E12	128.0	3.162557462361351	13.030286792550896	
1.7391554135132341E12	128.0	3.199724141723809	13.022113007956307	
1.7391554135151873E12	128.0	3.207200750573566	13.01550185865186	
1.7391554135171404E12	128.0	3.442798071241149	12.999466816520709	
1.7391554135190933E12	128.0	3.5177324435391957	12.998505194803698	
1.7391554135210464E12	128.0	3.4572464375392324	13.01047738518048	
1.7391554135229995E12	128.0	3.4460675850789846	13.023507359445972	
1.7391554135249526E12	128.0	3.4429663550416256	13.028724157260754	
1.7391554135269055E12	128.0	3.196767154944001	13.044614956134355	
1.7391554135288586E12	128.0	3.107624821777124	13.042547469442782	
1.7391554135308118E12	128.0	3.1714043821578484	13.029830022235316	
1.739155413532765E12	128.0	3.2146773594233227	13.02052633212324	
1.7391554135347178E12	128.0	3.2263610632850006	13.01285739893008	
1.739155413536671E12	128.0	3.4603717081195167	12.996557910826752	
1.739155413538624E12	128.0	3.5291276608857705	12.998986005662204	
1.7391554135405771E12	128.0	3.4569819915670545	13.013482453046137	
1.73915541354253E12	128.0	3.447630220369127	13.027353846314014	
1.7391554135444832E12	128.0	3.452822977640984	13.032931252272675	
1.7391554135464363E12	128.0	3.3574781843993886	13.042619591071558	
1.7391554135483894E12	128.0	3.102095496904313	13.05098570000955	
1.7391554135503423E12	128.0	3.1247657288828368	13.039854928635151	
1.7391554135522954E12	128.0	3.2009742499559226	13.035046820050098	
1.7391554135542485E12	128.0	3.2141965485648174	13.030334873636747	
1.7391554135562014E12	128.0	3.3274755868286596	13.016824088512749	
1.7391554135581545E12	128.0	3.5325894990670084	13.007304033514345	
1.7391554135601077E12	128.0	3.4885472244279256	13.017737629143909	
1.7391554135620608E12	128.0	3.448086990684707	13.027954859887146	
1.7391554135640137E12	128.0	3.4403218953198467	13.038604820403037	
1.7391554135659668E12	128.0	3.3377168581148218	13.049134578204304	
1.73915541356792E12	128.0	3.102552267219893	13.055385119364873	
1.739155413569873E12	128.0	3.1333482027071557	13.044206266904625	
1.739155413571826E12	128.0	3.1990269659789763	13.031392657525458	
1.739155413573779E12	128.0	3.2028734528470184	13.029565576263138	
1.7391554135757322E12	128.0	3.326706289455051	13.018651169775069	
1.7391554135776853E12	128.0	3.5283824040550873	13.00828969577428	
1.7391554135796382E12	128.0	3.4824890076107593	13.021584116011951	
1.7391554135815913E12	128.0	3.419791271661672	13.032642765757572	
1.7391554135835444E12	128.0	3.432677002669613	13.04230706401353	
1.7391554135854976E12	128.0	3.4306095159780403	13.047475780742461	
1.7391554135874504E12	128.0	3.1719813551880547	13.063102133643882	
1.7391554135894036E12	128.0	3.0950035367413604	13.060553836093804	
1.7391554135913567E12	128.0	3.172822774190439	13.047764267257564	
1.7391554135933098E12	128.0	3.1928004653613327	13.040936753066788	
1.7391554135952627E12	128.0	3.2320827125012137	13.03660945534024	
1.7391554135972158E12	128.0	3.4669347763381135	13.021511994383175	
1.739155413599169E12	128.0	3.510832807719645	13.022016845784606	
1.739155413601122E12	128.0	3.449625585431924	13.035816117423707	
1.739155413603075E12	128.0	3.444553030874693	13.052115605527037	
1.739155413605028E12	128.0	3.4304652727204887	13.057548768228147	
1.7391554136069812E12	128.0	3.1461618120863215	13.070386418150237	
1.739155413608934E12	128.0	3.0966623342032036	13.06565043119396	
1.7391554136108872E12	128.0	3.159648556667394	13.055216835564396	
1.7391554136128403E12	128.0	3.1816216129010852	13.047307496941984	
1.7391554136147935E12	128.0	3.2054217503970963	13.04225898292768	
1.7391554136167463E12	128.0	3.4663097222220567	13.025454643422918	
1.7391554136186995E12	128.0	3.49486988721727	13.026632630026256	
1.7391554136206526E12	128.0	3.444456868702992	13.04098483415264	
1.7391554136226057E12	128.0	3.422724217898554	13.05012024046424	
1.7391554136245586E12	128.0	3.444000098387412	13.059520092748018	
1.7391554136265117E12	128.0	3.273985378819948	13.071708648011127	
1.7391554136284648E12	128.0	3.084473778940095	13.07514644564944	
1.739155413630418E12	128.0	3.1170006335179767	13.063582944502388	
1.7391554136323708E12	128.0	3.16972154415308	13.056442903253584	
1.739155413634324E12	128.0	3.1827515184185726	13.048100834858518	
1.739155413636277E12	128.0	3.3482946970019376	13.031753265669337	
1.7391554136382302E12	128.0	3.518044970597224	13.022569778271887	
1.739155413640183E12	128.0	3.464795168017765	13.038532698774262	
1.7391554136421362E12	128.0	3.432701043212538	13.050601051322746	
1.7391554136440894E12	128.0	3.419983596005074	13.060313430664552	
1.7391554136460425E12	128.0	3.2606188369535016	13.071612485839426	
1.7391554136479954E12	128.0	3.0784876837517046	13.07711777016931	
1.7391554136499485E12	128.0	3.126809175031484	13.06468880947695	
1.7391554136519016E12	128.0	3.1875596270036253	13.055914011309229	
1.7391554136538547E12	128.0	3.2011425337563995	13.051514591953906	
1.7391554136558076E12	128.0	3.3615650766966834	13.034998738964248	
1.7391554136577607E12	128.0	3.5178286057108967	13.031633062954711	
1.7391554136597139E12	128.0	3.4536163155575177	13.044518793962654	
1.739155413661667E12	128.0	3.427941015713336	13.052043483898261	
1.7391554136636199E12	128.0	3.4185892445154087	13.064953255449128	
1.739155413665573E12	128.0	3.3840189437888792	13.071107634437995	
1.7391554136675261E12	128.0	3.110269281498903	13.085820446708256	
1.739155413669479E12	128.0	3.080531129900352	13.078656364916528	
1.7391554136714321E12	128.0	3.1565473266300352	13.067621755713832	
1.7391554136733853E12	128.0	3.184963248367697	13.058318065601755	
1.7391554136753384E12	128.0	3.2155668595115574	13.05468794362004	
1.7391554136772913E12	128.0	3.4723198579533725	13.03843653660256	
1.7391554136792444E12	128.0	3.4892444001727583	13.047451740199536	
1.7391554136811975E12	128.0	3.4069295811966556	13.058125741258353	
1.7391554136831506E12	128.0	3.4329895297276414	13.068943985574721	
1.7391554136851035E12	128.0	3.389620390290466	13.076420594424478	
1.7391554136870566E12	128.0	3.1107020112715578	13.087887933399829	
1.7391554136890098E12	128.0	3.0980086046070183	13.081973959840214	
1.739155413690963E12	128.0	3.171284179443222	13.07057874249364	
1.7391554136929158E12	128.0	3.1905166137834327	13.066924579969	
1.739155413694869E12	128.0	3.2383572942047074	13.060265349578701	
1.739155413696822E12	128.0	3.485926805249072	13.044711118306056	
1.7391554136987751E12	128.0	3.526699566050319	13.049423064719408	
1.739155413700728E12	128.0	3.4581840187133177	13.065169620335455	
1.7391554137026812E12	128.0	3.4208490555503834	13.07656483768203	
1.7391554137046343E12	128.0	3.4378216788556193	13.083488514044506	
1.7391554137065874E12	128.0	3.2307124015544737	13.093681704244817	
1.7391554137085403E12	128.0	3.0649047769989304	13.09259987981318	
1.7391554137104934E12	128.0	3.141281581872493	13.081396986810008	
1.7391554137124465E12	128.0	3.1860450727993337	13.073631891445148	
1.7391554137143997E12	128.0	3.201743547329531	13.068871863945946	
1.7391554137163525E12	128.0	3.3992366074605713	13.053125308329898	
1.7391554137183057E12	128.0	3.515208186532043	13.04788446997219	
1.7391554137202588E12	128.0	3.455275113019361	13.062236674098573	
1.7391554137222117E12	128.0	3.4299123402332077	13.073655931988073	
1.7391554137241648E12	128.0	3.424647461332575	13.083007703186	
1.739155413726118E12	128.0	3.2174179813168027	13.100244772463414	
1.739155413728071E12	128.0	3.07896849461021	13.100485177892667	
1.739155413730024E12	128.0	3.1470993932604068	13.086301257566761	
1.739155413731977E12	128.0	3.1822707075600674	13.075170486192365	
1.7391554137339302E12	128.0	3.195012195310457	13.071348039867248	
1.7391554137358833E12	128.0	3.258118620489274	13.068871863945946	
1.7391554137378362E12	128.0	3.50080790131981	13.05276470018602	
1.7391554137397893E12	128.0	3.4809504128635425	13.063919512103341	
1.7391554137417424E12	128.0	3.4163053929375087	13.076011905194749	
1.7391554137436956E12	128.0	3.4248638262189024	13.08930632543242	
1.7391554137456484E12	128.0	3.3537759407888976	13.097840718170888	
1.7391554137476016E12	128.0	3.093224536564891	13.106735719053235	
1.7391554137495547E12	128.0	3.0921667526761794	13.097864758713813	
1.7391554137515078E12	128.0	3.1627738272476784	13.088344703715409	
1.7391554137534607E12	128.0	3.1807080722699252	13.079834351519866	
1.7391554137554138E12	128.0	3.2597293368652664	13.071708648011127	
1.739155413757367E12	128.0	3.4962882792498604	13.058654633202709	
1.73915541375932E12	128.0	3.4808542506918414	13.068415093630366	
1.739155413761273E12	128.0	3.400679040036087	13.08108445975198	
1.739155413763226E12	128.0	3.4000780264629555	13.091013203980113	
1.7391554137651792E12	128.0	3.3378851419152986	13.101446799609677	
1.7391554137671323E12	128.0	3.075698980772374	13.11173615198169	
1.7391554137690852E12	128.0	3.094234239367752	13.101398718523827	
1.7391554137710383E12	128.0	3.1609467459853584	13.090340068778206	
1.7391554137729915E12	128.0	3.181765856158637	13.083512554587431	
1.7391554137749443E12	128.0	3.181429288557683	13.083897203274235	
1.7391554137768975E12	128.0	3.4082037299716945	13.068006404400636	
1.7391554137788506E12	128.0	3.49395634658611	13.066780336711448	
1.7391554137808037E12	128.0	3.4185652039724834	13.077622621570741	
1.7391554137827566E12	128.0	3.404405324189503	13.09026794714943	
1.7391554137847097E12	128.0	3.416425595652135	13.100869826579471	
1.7391554137866628E12	128.0	3.171115895642745	13.115414355049255	
1.739155413788616E12	128.0	3.062596884878105	13.11264969261285	
1.7391554137905688E12	128.0	3.1224578367620115	13.101759326667706	
1.739155413792522E12	128.0	3.158903299836711	13.093224933929237	
1.739155413794475E12	128.0	3.1806359506411495	13.087335000912548	
1.7391554137964282E12	128.0	3.408876865173602	13.071756729096977	
1.739155413798381E12	128.0	3.473569966185486	13.073030877872016	
1.7391554138003342E12	128.0	3.4208490555503834	13.085507919650228	
1.7391554138022874E12	128.0	3.400318431892208	13.096855055910952	
1.7391554138042405E12	128.0	3.4011598508945924	13.104283583674858	
1.7391554138061934E12	128.0	3.146498379687275	13.119188720288522	
1.7391554138081465E12	128.0	3.0546635057127682	13.119429125717774	
1.7391554138100996E12	128.0	3.1219289448176557	13.109187854431612	
1.7391554138120527E12	128.0	3.1488303123510257	13.107000165025413	
1.7391554138140056E12	128.0	3.1698657874106315	13.102408421326688	
1.7391554138159587E12	128.0	3.271509202898646	13.089210163260718	
1.7391554138179119E12	128.0	3.4935476573563804	13.075867661937197	
1.739155413819865E12	128.0	3.472824709354803	13.090820879636711	
1.7391554138218179E12	128.0	3.4169304470535655	13.103730651187577	
1.739155413823771E12	128.0	3.4136128521298787	13.111615949267064	
1.739155413825724E12	128.0	3.300526138209439	13.119188720288522	
1.739155413827677E12	128.0	3.0618997091332725	13.129622315918086	
1.7391554138296301E12	128.0	3.0903637119567846	13.117553963369604	
1.7391554138315833E12	128.0	3.1620285704169953	13.107793502941947	
1.7391554138335364E12	128.0	3.179866653267541	13.100869826579471	
1.7391554138354893E12	128.0	3.2961988404828917	13.090989163437188	
1.7391554138374424E12	128.0	3.499076982229191	13.08158931115341	
1.7391554138393955E12	128.0	3.4578234105694388	13.092455636555629	
1.7391554138413486E12	128.0	3.4015204590384713	13.101711245581855	
1.7391554138433015E12	128.0	3.4055352297069903	13.110077354519847	
1.7391554138452546E12	128.0	3.27920217663473	13.122265909782955	
1.7391554138472078E12	128.0	3.0623564794488525	13.130848383607274	
1.739155413849161E12	128.0	3.094594847511631	13.121905301639076	
1.7391554138511138E12	128.0	3.128540094122103	13.119332963546073	
1.739155413853067E12	128.0	3.1734237877635705	13.110894732979306	
1.73915541385502E12	128.0	3.192271573416977	13.106495313623983	
1.7391554138569731E12	128.0	3.4317153809526024	13.09159017701032	
1.739155413858926E12	128.0	3.4869845891377835	13.090965122894263	
1.7391554138608792E12	128.0	3.416954487596491	13.103153678157371	
1.7391554138628323E12	128.0	3.404693810704606	13.11493354419075	
1.7391554138647854E12	128.0	3.4048380539621577	13.12310732878534	
1.7391554138667383E12	128.0	3.1345983109392694	13.136137303050832	
1.7391554138686914E12	128.0	3.0745690752548867	13.131208991751153	
1.7391554138706445E12	128.0	3.1467868662023784	13.12274672064146	
1.7391554138725977E12	128.0	3.1752268284829652	13.113731517044487	
1.7391554138745505E12	128.0	3.202657087960691	13.106807840682011	
1.7391554138765037E12	128.0	3.442533625268971	13.08981117683385	
1.7391554138784568E12	128.0	3.4803253587474856	13.094018271845771	
1.73915541388041E12	128.0	3.4163775145662845	13.106086624394253	
1.7391554138823628E12	128.0	3.423277150385835	13.119789733861653	
1.739155413884316E12	128.0	3.3929379852141524	13.12680957239583	
1.739155413886269E12	128.0	3.123611782822424	13.143109060499159	
1.739155413888222E12	128.0	3.0514901540466335	13.14548907424876	
1.739155413890175E12	128.0	3.103898537623708	13.133805370387082	
1.7391554138921282E12	128.0	3.1531095289917226	13.12457380190378	
1.7391554138940813E12	128.0	3.1659712194567384	13.118876193230493	
1.7391554138960342E12	128.0	3.315479355908953	13.107721381313171	
1.7391554138979873E12	128.0	3.5022503338953257	13.095003934105707	
1.7391554138999404E12	128.0	3.457126234824606	13.107096327197114	
1.7391554139018936E12	128.0	3.403395621386642	13.12178509892445	
1.7391554139038464E12	128.0	3.3991644858317955	13.132915870298847	
1.7391554139057996E12	128.0	3.254320214707082	13.14558523642046	
1.7391554139077527E12	128.0	3.0530287487938503	13.14822969614224	
1.7391554139097058E12	128.0	3.1006530643287973	13.138060546484853	
1.7391554139116587E12	128.0	3.16657223302987	13.126280680451474	
1.7391554139136118E12	128.0	3.16743769257518	13.121424490780571	
1.739155413915565E12	128.0	3.325600424480489	13.107721381313171	
1.739155413917518E12	128.0	3.491239765235555	13.100629421150218	
1.739155413919471E12	128.0	3.438999665458957	13.113731517044487	
1.739155413921424E12	128.0	3.3896684713763165	13.124405518103304	
1.7391554139233772E12	128.0	3.3884664442300534	13.133300518985651	
1.7391554139253303E12	128.0	3.369306131518618	13.139695303403771	
1.7391554139272832E12	128.0	3.1018791320179857	13.15243679115416	
1.7391554139292363E12	128.0	3.0704100613288157	13.143373506471336	
1.7391554139311895E12	128.0	3.140344000698408	13.136377708480085	
1.7391554139331426E12	128.0	3.1601534080688247	13.128925140173253	
1.7391554139350955E12	128.0	3.1923196545028274	13.123443896386293	
1.7391554139370486E12	128.0	3.442100895496316	13.1057500567933	
1.7391554139390017E12	128.0	3.477368371967678	13.114909503647825	
1.7391554139409546E12	128.0	3.3884664442300534	13.12813180225672	
1.7391554139429077E12	128.0	3.395197796249127	13.138541357343358	
1.7391554139448608E12	128.0	3.368753199031337	13.14832585831394	
1.739155413946814E12	128.0	3.0888731982954183	13.160418251405348	
1.7391554139487668E12	128.0	3.0546154246269177	13.150273142290887	
1.73915541395072E12	128.0	3.1425316901046068	13.141738749552418	
1.739155413952673E12	128.0	3.1580378402914016	13.135007397533345	
1.7391554139546262E12	128.0	3.218812332806468	13.130319491662918	
1.739155413956579E12	128.0	3.4633527354422493	13.111135138408558	
1.7391554139585322E12	128.0	3.4765269529652936	13.118154976942735	
1.7391554139604854E12	128.0	3.4063766487093745	13.130151207862442	
1.7391554139624385E12	128.0	3.4138532575591314	13.140632884577856	
1.7391554139643914E12	128.0	3.4012560130662934	13.144503411988824	
1.7391554139663445E12	128.0	3.21580726494081	13.15878349448643	
1.7391554139682976E12	128.0	3.051730559475886	13.161163508236031	
1.7391554139702507E12	128.0	3.1055813756284767	13.153446493957022	
1.7391554139722036E12	128.0	3.1637835300505395	13.145392912077059	
1.7391554139741567E12	128.0	3.1733276255918694	13.14101753326466	
1.7391554139761099E12	128.0	3.3690416855464402	13.124357437017453	
1.739155413978063E12	128.0	3.485854683620296	13.116880828167696	
1.7391554139800159E12	128.0	3.422916542241956	13.133324559528576	
1.739155413981969E12	128.0	3.401953188811126	13.143277344299635	
1.739155413983922E12	128.0	3.4077469596561145	13.152052142467356	
1.7391554139858752E12	128.0	3.197223925259581	13.162702102983248	
1.7391554139878281E12	128.0	3.0515622756754093	13.163423319271006	
1.7391554139897812E12	128.0	3.116303457773144	13.153230129070694	
1.7391554139917344E12	128.0	3.15606651577153	13.144070682216169	
1.7391554139936873E12	128.0	3.168255071034639	13.140945411635885	
1.7391554139956404E12	128.0	3.378609821630695	13.124309355931603	
1.7391554139975935E12	128.0	3.4963123197927857	13.122049544896628	
1.7391554139995466E12	128.0	3.440538260206174	13.134935275904569	
1.7391554140014995E12	128.0	3.4041649187602503	13.144839979589777	
1.7391554140034526E12	128.0	3.423445434186312	13.155369737391043	
1.7391554140054058E12	128.0	3.364449941847715	13.164913832932372	
1.739155414007359E12	128.0	3.083752562652337	13.176164807021397	
1.7391554140093118E12	128.0	3.082814981478252	13.167510211568302	
1.739155414011265E12	128.0	3.1376755004337036	13.159600872945889	
1.739155414013218E12	128.0	3.1663318276006174	13.150201020662111	
1.7391554140151711E12	128.0	3.2287170364916764	13.141618546837792	
1.739155414017124E12	128.0	3.4565011807085493	13.127891396827467	
1.7391554140190771E12	128.0	3.454650058903304	13.135848816535729	
1.7391554140210303E12	128.0	3.385797943965349	13.148349898856866	
1.7391554140229834E12	128.0	3.4005107562356103	13.157749751140644	
1.7391554140249363E12	128.0	3.3283891274598196	13.167341927767826	
1.7391554140268894E12	128.0	3.0608900063304114	13.178039969369568	
1.7391554140288425E12	128.0	3.070434101871741	13.168736279257491	
1.7391554140307957E12	128.0	3.1317855674170136	13.159672994574665	
1.7391554140327485E12	128.0	3.153518218221452	13.153133966898993	
1.7391554140347017E12	128.0	3.227755414774666	13.142508046926027	
1.7391554140366548E12	128.0	3.4581599781703924	13.130848383607274	
1.739155414038608E12	128.0	3.45289509926976	13.143277344299635	
1.7391554140405608E12	128.0	3.4139734602737577	13.150922236949869	
1.739155414042514E12	128.0	3.394741025933547	13.166115860078637	
1.739155414044467E12	128.0	3.3840429843318045	13.171573063322672	
1.7391554140464202E12	128.0	3.1602495702405258	13.185853145820278	
1.739155414048373E12	128.0	3.0312720574464866	13.182679794154144	
1.7391554140503262E12	128.0	3.100003969669815	13.170250833461782	
1.7391554140522793E12	128.0	3.1363773111157394	13.163255035470529	
1.7391554140542322E12	128.0	3.163446962449586	13.158903697201056	
1.7391554140561853E12	128.0	3.3855575385360965	13.141354100865614	
1.7391554140581384E12	128.0	3.4596264512888335	13.140632884577856	
1.7391554140600916E12	128.0	3.3908704985225797	13.15325416961362	
1.7391554140620444E12	128.0	3.3702677532356287	13.162605940811547	
1.7391554140639976E12	128.0	3.386422998081406	13.172847212097711	
1.7391554140659507E12	128.0	3.1329395134774263	13.188978416400563	
1.7391554140679038E12	128.0	3.030502760072878	13.183521213156528	
1.7391554140698567E12	128.0	3.110726051814483	13.172727009383085	
1.7391554140718098E12	128.0	3.1378437842341804	13.167390008853676	
1.739155414073763E12	128.0	3.1447674605966562	13.161379873122359	
1.739155414075716E12	128.0	3.3809177137515203	13.142556128011877	
1.739155414077669E12	128.0	3.4555876400773893	13.140801168378333	
1.739155414079622E12	128.0	3.4289987996020477	13.155297615762267	
1.7391554140815752E12	128.0	3.3708928073516855	13.16813526568436	
1.7391554140835283E12	128.0	3.373681510331016	13.178881388371952	
1.7391554140854812E12	128.0	3.291559015698316	13.186694564822663	
1.7391554140874343E12	128.0	3.0260312190887793	13.194387538558747	
1.7391554140893875E12	128.0	3.0742805887397835	13.18229514546734	
1.7391554140913406E12	128.0	3.1397670276682015	13.173880955443497	
1.7391554140932935E12	128.0	3.1484456636642215	13.165731211391831	
1.7391554140952466E12	128.0	3.2539596065632033	13.158134399827448	
1.7391554140971997E12	128.0	3.4695551955169672	13.14645069596577	
1.7391554140991528E12	128.0	3.4474859771115756	13.159096021544459	
1.7391554141011057E12	128.0	3.3927697014136755	13.169120927944295	
1.7391554141030588E12	128.0	3.382816916642616	13.180299780404543	
1.739155414105012E12	128.0	3.2900925425798744	13.189363065087367	
1.7391554141069648E12	128.0	3.0458165859162714	13.197272403709778	
1.739155414108918E12	128.0	3.083728522109412	13.185348294418848	
1.739155414110871E12	128.0	3.14053632504181	13.180035334432365	
1.7391554141128242E12	128.0	3.1579657186626258	13.174289644673227	
1.739155414114777E12	128.0	3.1647932328534005	13.172198117438729	
1.7391554141167302E12	128.0	3.408612419201424	13.153542656128723	
1.7391554141186833E12	128.0	3.4634729381568756	13.156235196936352	
1.7391554141206365E12	128.0	3.3903896876640744	13.17097204974954	
1.7391554141225894E12	128.0	3.3726958480710802	13.182703834697069	
1.7391554141245425E12	128.0	3.366565509625138	13.189555389430769	
1.7391554141264956E12	128.0	3.093320698736592	13.20335466106987	
1.7391554141284487E12	128.0	3.017785312865414	13.198426349770191	
1.7391554141304016E12	128.0	3.107624821777124	13.186141632335382	
1.7391554141323547E12	128.0	3.1275784724050926	13.180540185833795	
1.7391554141343079E12	128.0	3.1619564487882195	13.177390874710586	
1.739155414136261E12	128.0	3.401039648179966	13.162269373210593	
1.7391554141382139E12	128.0	3.4424134225543446	13.161427954208209	
1.739155414140167E12	128.0	3.383898741074253	13.170779725406138	
1.73915541414212E12	128.0	3.379595483890631	13.185732943105652	
1.7391554141440732E12	128.0	3.3550741301068623	13.193882687157316	
1.7391554141460261E12	128.0	3.0842333735108425	13.207080945223286	
1.7391554141479792E12	128.0	3.022449178192915	13.20020534994666	
1.7391554141499324E12	128.0	3.0917099823605994	13.1900602408322	
1.7391554141518855E12	128.0	3.1337809324798105	13.182992321212172	
1.7391554141538384E12	128.0	3.137915905862956	13.18193453732346	
1.7391554141557915E12	128.0	3.262854607445551	13.168952644143818	
1.7391554141577446E12	128.0	3.450995896378664	13.161379873122359	
1.7391554141596975E12	128.0	3.402602283470108	13.171308617350494	
1.7391554141616506E12	128.0	3.369378253147394	13.185853145820278	
1.7391554141636038E12	128.0	3.3558915085663212	13.19655118742202	
1.739155414165557E12	128.0	3.2106385482118784	13.210590864490374	
1.7391554141675098E12	128.0	3.0239396918542814	13.215999986648558	
1.739155414169463E12	128.0	3.0615150604464683	13.202080512294831	
1.739155414171416E12	128.0	3.111904038417821	13.194627943988	
1.7391554141733691E12	128.0	3.1265447290593062	13.190084281375125	
1.739155414175322E12	128.0	3.27965894695031	13.176164807021397	
1.7391554141772751E12	128.0	3.4484956799144366	13.166957279081021	
1.7391554141792283E12	128.0	3.3936592015019102	13.176597536794052	
1.7391554141811814E12	128.0	3.364353779676014	13.188810132600086	
1.7391554141831343E12	128.0	3.3699552261776002	13.197248363166853	
1.7391554141850874E12	128.0	3.2062631693994805	13.2083310534554	
1.7391554141870405E12	128.0	3.0228819079655698	13.214557554073043	
1.7391554141889937E12	128.0	3.068607020609421	13.203546985413272	
1.7391554141909465E12	128.0	3.1054852134567756	13.202681525867963	
1.7391554141928997E12	128.0	3.1299584861546936	13.194988552131878	
1.7391554141948528E12	128.0	3.1685675980926673	13.189002456943488	
1.739155414196806E12	128.0	3.415295690134647	13.173087617526964	
1.7391554141987588E12	128.0	3.4471734500535467	13.180155537146991	
1.739155414200712E12	128.0	3.3762057673381687	13.192728741096904	
1.739155414202665E12	128.0	3.3694263342332444	13.207104985766211	
1.7391554142046182E12	128.0	3.344303966876344	13.21563937850468	
1.739155414206571E12	128.0	3.062861330850283	13.227202879651731	
1.7391554142085242E12	128.0	3.0249493946571424	13.221433149349668	
1.7391554142104773E12	128.0	3.0926475635346846	13.209941769831392	
1.7391554142124302E12	128.0	3.1222895529615347	13.201263133835372	
1.7391554142143833E12	128.0	3.1682310304917136	13.193666322270989	
1.7391554142163364E12	128.0	3.4154399333921988	13.183376969898976	
1.7391554142182896E12	128.0	3.4274361643119056	13.18691092970899	
1.7391554142202424E12	128.0	3.3557232247658444	13.197176241538077	
1.7391554142221956E12	128.0	3.3780088080575634	13.209388837344111	
1.7391554142241487E12	128.0	3.32798043823009	13.217682824653327	
1.7391554142261018E12	128.0	3.0585099925808104	13.230977244890997	
1.7391554142280547E12	128.0	3.035791679516436	13.224269933414849	
1.7391554142300078E12	128.0	3.0765644403176835	13.222226487266202	
1.739155414231961E12	128.0	3.1163515388589946	13.213042999868751	
1.739155414233914E12	128.0	3.1230107692492926	13.208018526397371	
1.739155414235867E12	128.0	3.322523234986055	13.194363498015822	
1.73915541423782E12	128.0	3.446019503993134	13.190036200289274	
1.7391554142397732E12	128.0	3.387072092740388	13.202729606953813	
1.7391554142417263E12	128.0	3.3646903472769676	13.216432716421213	
1.7391554142436792E12	128.0	3.374234442818297	13.223260230611988	
1.7391554142456323E12	128.0	3.161018867614134	13.237444150937893	
1.7391554142475854E12	128.0	3.007327676692924	13.238550015912455	
1.7391554142495386E12	128.0	3.0701936964424883	13.22568832544744	
1.7391554142514915E12	128.0	3.0981288073216446	13.214797959502295	
1.7391554142534446E12	128.0	3.1101971598701272	13.212009256522965	
1.7391554142553977E12	128.0	3.3111760987253307	13.193642281728064	
1.7391554142573508E12	128.0	3.430873961950218	13.188305281198655	
1.7391554142593037E12	128.0	3.3653154013930244	13.200277471575436	
1.7391554142612568E12	128.0	3.341659507154565	13.211095715891805	
1.73915541426321E12	128.0	3.3539923056752254	13.221601433150145	
1.739155414265163E12	128.0	3.1364013516586646	13.239535678172391	
1.739155414267116E12	128.0	3.026656273204836	13.246363192363166	
1.739155414269069E12	128.0	3.0233146377382245	13.236121921077004	
1.7391554142710222E12	128.0	3.0932726176507415	13.22395740635682	
1.739155414272975E12	128.0	3.10226378070479	13.218355959855234	
1.7391554142749282E12	128.0	3.1767894637731073	13.21116783752058	
1.7391554142768813E12	128.0	3.4195989473182697	13.191238227435537	
1.7391554142788345E12	128.0	3.4087326219160503	13.198474430856042	
1.7391554142807874E12	128.0	3.33528876327937	13.21249006738147	
1.7391554142827405E12	128.0	3.3457944805377102	13.221553352064294	
1.7391554142846936E12	128.0	3.288313542403405	13.231409974663652	
1.7391554142866467E12	128.0	3.019540272498958	13.243790854270163	
1.7391554142885996E12	128.0	3.0290843680402877	13.23528050207462	
1.7391554142905527E12	128.0	3.1018550914750604	13.224991149702607	
1.7391554142925059E12	128.0	3.1129858628494578	13.215615337961754	
1.739155414294459E12	128.0	3.1915984382150695	13.207537715538866	
1.7391554142964119E12	128.0	3.4218347178103192	13.193065308697857	
1.739155414298365E12	128.0	3.409453838203808	13.199532214744753	
1.739155414300318E12	128.0	3.3480062104868344	13.211095715891805	
1.7391554143022712E12	128.0	3.349616926862827	13.226577825535674	
1.739155414304224E12	128.0	3.343414466788109	13.231409974663652	
1.7391554143061772E12	128.0	3.112192524932924	13.249199976428347	
1.7391554143081304E12	128.0	2.9893693911277524	13.243983178613565	
1.7391554143100835E12	128.0	3.049158221382883	13.233068772125495	
1.7391554143120364E12	128.0	3.095051617827211	13.224798825359205	
1.7391554143139895E12	128.0	3.1031532807930247	13.219822432973675	
1.7391554143159426E12	128.0	3.3392314123191134	13.204604769301984	
1.7391554143178958E12	128.0	3.421257744780113	13.204580728759058	
1.7391554143198486E12	128.0	3.3527421974431113	13.214629675701818	
1.7391554143218018E12	128.0	3.329519032977307	13.228116420282891	
1.739155414323755E12	128.0	3.33665907422611	13.233597664069851	
1.7391554143257078E12	128.0	3.095893036829595	13.24766138168113	
1.739155414327661E12	128.0	2.999730865128541	13.24400721915649	
1.739155414329614E12	128.0	3.0640152769106956	13.233645745155702	
1.7391554143315671E12	128.0	3.1050284431411956	13.228501068969695	
1.73915541433352E12	128.0	3.111278984301764	13.219966676231227	
1.7391554143354731E12	128.0	3.350073697178407	13.204147998986404	
1.7391554143374263E12	128.0	3.432869327013015	13.205975080248724	
1.7391554143393794E12	128.0	3.3642095364184623	13.218860811256665	
1.7391554143413323E12	128.0	3.3534874542737945	13.230616636747119	
1.7391554143432854E12	128.0	3.346395494110842	13.237444150937893	
1.7391554143452385E12	128.0	3.2623257155011953	13.249825030544404	
1.7391554143471917E12	128.0	3.009972136414703	13.257830531338517	
1.7391554143491445E12	128.0	3.0517546000188114	13.245762178790034	
1.7391554143510977E12	128.0	3.1147167819400767	13.2380211239681	
1.7391554143530508E12	128.0	3.124958053226239	13.23162633954998	
1.739155414355004E12	128.0	3.235015658738096	13.219509905915647	
1.7391554143569568E12	128.0	3.4544096534740514	13.202080512294831	
1.73915541435891E12	128.0	3.4145023522181135	13.211384202406908	
1.739155414360863E12	128.0	3.3634883201307044	13.222274568352052	
1.7391554143628162E12	128.0	3.363464279587779	13.235448785875096	
1.739155414364769E12	128.0	3.264224918392291	13.246218949105614	
1.7391554143667222E12	128.0	3.029132449126138	13.254248490442652	
1.7391554143686753E12	128.0	3.0631017362795356	13.242396502780498	
1.7391554143706284E12	128.0	3.1223616745903104	13.233068772125495	
1.7391554143725813E12	128.0	3.1460896904575457	13.224750744273354	
1.7391554143745344E12	128.0	3.257758012345395	13.216673121850466	
1.7391554143764875E12	128.0	3.4571502753675314	13.206287607306752	
1.7391554143784404E12	128.0	3.4292392050313003	13.217177973251896	
1.7391554143803936E12	128.0	3.3881298766290997	13.22573640653329	
1.7391554143823467E12	128.0	3.380797511036894	13.238141326682726	
1.7391554143842998E12	128.0	3.360964063123552	13.242660948752675	
1.7391554143862527E12	128.0	3.091205130959169	13.25588324736157	
1.7391554143882058E12	128.0	3.0236992864250287	13.250474125203386	
1.739155414390159E12	128.0	3.107071889289843	13.240881948576206	
1.739155414392112E12	128.0	3.1264726074305305	13.232828366696243	
1.739155414394065E12	128.0	3.1508977990425984	13.229005920371126	
1.739155414396018E12	128.0	3.3874807819701176	13.212153499780516	
1.7391554143979712E12	128.0	3.4468849635384435	13.213475729641406	
1.7391554143999243E12	128.0	3.3647865094486686	13.226409541735197	
1.7391554144018772E12	128.0	3.3665895501680634	13.238333651026128	
1.7391554144038303E12	128.0	3.354304832733254	13.245641976075408	
1.7391554144057834E12	128.0	3.0898107794695036	13.26126832897683	
1.7391554144077366E12	128.0	3.022545340364616	13.258335382739947	
1.7391554144096895E12	128.0	3.094522725882855	13.244632273272547	
1.7391554144116426E12	128.0	3.1228184449058904	13.237372029309117	
1.7391554144135957E12	128.0	3.1476042446618373	13.233741907327403	
1.7391554144155488E12	128.0	3.4012560130662934	13.216961608365569	
1.7391554144175017E12	128.0	3.436066719222075	13.21792323008258	
1.7391554144194548E12	128.0	3.401592580667247	13.227202879651731	
1.739155414421408E12	128.0	3.3625747794995444	13.237949002339324	
1.739155414423361E12	128.0	3.3761817267952434	13.249776949458553	
1.739155414425314E12	128.0	3.233477063990879	13.261244288433904	
1.739155414427267E12	128.0	3.022353016021214	13.268336248596857	
1.7391554144292202E12	128.0	3.0639912363677704	13.257013152879058	
1.7391554144311733E12	128.0	3.1187075120656704	13.25076261171849	
1.7391554144331262E12	128.0	3.130896067328779	13.243069637982405	
1.7391554144350793E12	128.0	3.2890828397770133	13.230015623173987	
1.7391554144370325E12	128.0	3.4691224657443125	13.221361027720892	
1.7391554144389854E12	128.0	3.4126993114987187	13.233717866784477	
1.7391554144409385E12	128.0	3.3815668084105024	13.241891651379067	
1.7391554144428916E12	128.0	3.3753643483357845	13.253719598498297	
1.7391554144448447E12	128.0	3.22083173841219	13.26811988371053	
1.7391554144467976E12	128.0	3.013866704368596	13.273264559896536	
1.7391554144487507E12	128.0	3.079184859496537	13.258551747626274	
1.7391554144507039E12	128.0	3.1232992557643957	13.248959570999094	
1.739155414452657E12	128.0	3.1367619598025436	13.242925394724853	
1.7391554144546099E12	128.0	3.2934341780464864	13.231241690863175	
1.739155414456563E12	128.0	3.432604881040837	13.228861677113574	
1.739155414458516E12	128.0	3.4410190710646793	13.234222718185908	
1.7391554144604692E12	128.0	3.372118875040874	13.244271665128668	
1.739155414462422E12	128.0	3.3673107664558213	13.25537839596014	
1.7391554144643752E12	128.0	3.344400129048045	13.262710761552345	
1.7391554144663284E12	128.0	3.057283924891622	13.275548411474436	
1.7391554144682815E12	128.0	3.032137516991796	13.26816796479638	
1.7391554144702344E12	128.0	3.0969989018041573	13.259224882828182	
1.7391554144721875E12	128.0	3.127506350776317	13.253022422753464	
1.7391554144741406E12	128.0	3.162749786704753	13.248454719597664	
1.7391554144760938E12	128.0	3.4053909864494387	13.230472393489567	
1.7391554144780466E12	128.0	3.432124070182332	13.236915258993537	
1.7391554144799998E12	128.0	3.350794913466165	13.24907977371372	
1.739155414481953E12	128.0	3.365555806822277	13.256820828535655	
1.739155414483906E12	128.0	3.348799548403368	13.263912788698608	
1.739155414485859E12	128.0	3.045431937229467	13.277639938708933	
1.739155414487812E12	128.0	3.03064700333043	13.268071802624679	
1.7391554144897651E12	128.0	3.080459008271576	13.260378828888594	
1.739155414491718E12	128.0	3.119957620297784	13.255979409533271	
1.7391554144936711E12	128.0	3.1351031623407	13.255234152702588	
1.7391554144956243E12	128.0	3.3111760987253307	13.241074272919608	
1.7391554144975774E12	128.0	3.4539769237013966	13.23391019112788	
1.7391554144995303E12	128.0	3.3787540648882466	13.247541178966504	
1.7391554145014834E12	128.0	3.3549779679351612	13.259705693686687	
1.7391554145034365E12	128.0	3.3545692787054318	13.269321910856792	
1.7391554145053896E12	128.0	3.153253772249274	13.281390263405275	
1.7391554145073425E12	128.0	3.0019666356205903	13.285837763846448	
1.7391554145092957E12	128.0	3.063221938994162	13.27360112749749	
1.7391554145112488E12	128.0	3.087839454949632	13.261893383092886	
1.739155414513202E12	128.0	3.1026003483057436	13.256532342020552	
1.7391554145151548E12	128.0	3.3085797200894023	13.24314175961118	
1.739155414517108E12	128.0	3.43101820520777	13.240497299889402	
1.739155414519061E12	128.0	3.3603149684645697	13.250522206289236	
1.7391554145210142E12	128.0	3.3283891274598196	13.263672383269355	
1.739155414522967E12	128.0	3.340024750235647	13.27273566795218	
1.7391554145249202E12	128.0	3.1308720267858536	13.284515533985559	
1.7391554145268733E12	128.0	2.9811475254473123	13.287280196421964	
1.7391554145288264E12	128.0	3.0501198430998935	13.271653843520543	
1.7391554145307793E12	128.0	3.088200063093511	13.266989978193042	
1.7391554145327324E12	128.0	3.1026965104774447	13.266917856564266	
1.7391554145346855E12	128.0	3.165923138370888	13.261749139835334	
1.7391554145366387E12	128.0	3.4203922852348034	13.245810259875885	
1.7391554145385916E12	128.0	3.412987798013822	13.250714530632639	
1.7391554145405447E12	128.0	3.3411786962960597	13.261148126262203	
1.7391554145424978E12	128.0	3.347982169943909	13.276005181790016	
1.7391554145444507E12	128.0	3.2869913125425154	13.285260790816242	
1.7391554145464038E12	128.0	3.028002543608651	13.294420237670769	
1.739155414548357E12	128.0	3.0085537443821124	13.281390263405275	
1.73915541455031E12	128.0	3.08810390092181	13.274298303242322	
1.739155414552263E12	128.0	3.1088749300092378	13.269730600086522	
1.739155414554216E12	128.0	3.171644787587101	13.26126832897683	
1.7391554145561692E12	128.0	3.4138772981020566	13.243838935356013	
1.7391554145581223E12	128.0	3.401568540124322	13.251459787463322	
1.7391554145600752E12	128.0	3.3399045475210207	13.262422275037242	
1.7391554145620283E12	128.0	3.355314535536115	13.27648599264852	
1.7391554145639814E12	128.0	3.2966556107984717	13.283553912268548	
1.7391554145659346E12	128.0	3.0218481646197835	13.293674980840086	
1.7391554145678875E12	128.0	3.0350945037716035	13.286150290904477	
1.7391554145698406E12	128.0	3.0756749402294488	13.284058763669979	
1.7391554145717937E12	128.0	3.1097403895545472	13.275812857446613	
1.7391554145737468E12	128.0	3.12322713413562	13.272158694921973	
1.7391554145756997E12	128.0	3.357237778970136	13.256676585278104	
1.7391554145776528E12	128.0	3.439264111431135	13.253334949811492	
1.739155414579606E12	128.0	3.3771914295981045	13.267615032309099	
1.739155414581559E12	128.0	3.358800414260278	13.278385195539617	
1.739155414583512E12	128.0	3.36401721207506	13.286775345020533	
1.739155414585465E12	128.0	3.1165438632023967	13.304949995472034	
1.7391554145874182E12	128.0	3.010933758131714	13.301199670775693	
1.7391554145893713E12	128.0	3.0676694394353357	13.288842831712106	
1.7391554145913242E12	128.0	3.109548065211145	13.27821691173914	
1.7391554145932773E12	128.0	3.1208952014718694	13.274250222156471	
1.7391554145952305E12	128.0	3.3471167103985997	13.258864274684303	
1.7391554145971836E12	128.0	3.429960421319058	13.25898447739893	
1.7391554145991365E12	128.0	3.349136116004322	13.271557681348842	
1.7391554146010896E12	128.0	3.3404334394653765	13.284755939414811	
1.7391554146030427E12	128.0	3.34305385864423	13.291294967090485	
1.7391554146049956E12	128.0	3.0992106317532815	13.306873238906055	
1.7391554146069487E12	128.0	2.987686553122984	13.303050792580938	
1.7391554146089019E12	128.0	3.0314403412469635	13.297689751508605	
1.739155414610855E12	128.0	3.085026711427376	13.285813723303523	
1.7391554146128079E12	128.0	3.107889267749302	13.28273653380909	
1.739155414614761E12	128.0	3.2097971292094942	13.275043560073005	
1.739155414616714E12	128.0	3.4322923539828087	13.258094977310694	
1.7391554146186672E12	128.0	3.3839708627030287	13.266989978193042	
1.73915541462062E12	128.0	3.339664142091768	13.27958722268588	
1.7391554146225732E12	128.0	3.3384140338596544	13.290597791345652	
1.7391554146245264E12	128.0	3.245617538168137	13.301656441091273	
1.7391554146264795E12	128.0	2.9992260137271103	13.310575482516546	
1.7391554146284324E12	128.0	3.0274976922072203	13.2995889543997	
1.7391554146303855E12	128.0	3.1022156996189394	13.288506264111152	
1.7391554146323386E12	128.0	3.1068555244035156	13.2837943176978	
1.7391554146342917E12	128.0	3.227659252602965	13.27146151917714	
1.7391554146362446E12	128.0	3.4223155286688245	13.259753774772538	
1.7391554146381978E12	128.0	3.3847642006195624	13.271293235376664	
1.739155414640151E12	128.0	3.326874573255528	13.283866439326577	
1.739155414642104E12	128.0	3.340385358379526	13.29588671078921	
1.739155414644057E12	128.0	3.2283564283477975	13.306656874019728	
1.73915541464601E12	128.0	3.0694003585259546	13.314926820786019	
1.7391554146479631E12	128.0	2.990258891215987	13.309109009398105	
1.7391554146499163E12	128.0	3.0623564794488525	13.296223278390164	
1.7391554146518691E12	128.0	3.093705347423396	13.289924656143743	
1.7391554146538223E12	128.0	3.1099567544408746	13.284299169099231	
1.7391554146557754E12	128.0	3.3651471175925476	13.269009383798764	
1.7391554146577283E12	128.0	3.4044774458182787	13.27045181637428	
1.7391554146596814E12	128.0	3.3359378579383523	13.283481790639772	
1.7391554146616345E12	128.0	3.3277159922579123	13.296607927076968	
1.7391554146635876E12	128.0	3.325792748823891	13.304421103527678	
1.7391554146655405E12	128.0	3.0553366409146756	13.320456145658829	
1.7391554146674937E12	128.0	2.9936726483113745	13.314181563955335	
1.7391554146694468E12	128.0	3.0697609666698336	13.300574616659636	
1.7391554146714E12	128.0	3.0883443063510625	13.292857602380627	
1.7391554146733528E12	128.0	3.115726484742938	13.289443845285238	
1.739155414675306E12	128.0	3.3707966451799845	13.272927992295582	
1.739155414677259E12	128.0	3.418877731030512	13.274803154643752	
1.7391554146792122E12	128.0	3.342380723442323	13.286558980134206	
1.739155414681165E12	128.0	3.3320192494415344	13.298483089425138	
1.7391554146831182E12	128.0	3.3352406821935197	13.30324311692434	
1.7391554146850713E12	128.0	3.2116722915576648	13.317739564308274	
1.7391554146870244E12	128.0	2.993624567225524	13.321658172805092	
1.7391554146889773E12	128.0	3.0358157200593614	13.312186198892539	
1.7391554146909304E12	128.0	3.0811321434734835	13.301608360005423	
1.7391554146928835E12	128.0	3.107889267749302	13.29451639984247	
1.7391554146948367E12	128.0	3.242780754102956	13.283866439326577	
1.7391554146967896E12	128.0	3.4151514468770956	13.274322343785247	
1.7391554146987427E12	128.0	3.3800041731203603	13.287712926194619	
1.7391554147006958E12	128.0	3.3399045475210207	13.300815022088889	
1.739155414702649E12	128.0	3.339567979920067	13.310335077087293	
1.7391554147046018E12	128.0	3.186453762029063	13.318605023853584	
1.739155414706555E12	128.0	2.9959564998892745	13.323605456782039	
1.739155414708508E12	128.0	3.044590518227083	13.315575915445	
1.739155414710461E12	128.0	3.0954843475998657	13.306728995648504	
1.739155414712414E12	128.0	3.113298389907486	13.29821864345296	
1.7391554147143672E12	128.0	3.27006677032313	13.285308871902092	
1.7391554147163203E12	128.0	3.4391198681735835	13.279370857799552	
1.7391554147182732E12	128.0	3.3810379164661466	13.290549710259802	
1.7391554147202263E12	128.0	3.3402411151219744	13.302714224979985	
1.7391554147221794E12	128.0	3.333533803645826	13.310479320344845	
1.7391554147241326E12	128.0	3.3160082478533086	13.320792713259783	
1.7391554147260854E12	128.0	3.0329789359941803	13.339087566425908	
1.7391554147280386E12	128.0	3.0153812585728876	13.332596619836087	
1.7391554147299917E12	128.0	3.0824062922485225	13.320119578057875	
1.7391554147319448E12	128.0	3.1065670378884125	13.312522766493492	
1.7391554147338977E12	128.0	3.152316191075189	13.303772008868696	
1.7391554147358508E12	128.0	3.396832553168045	13.284755939414811	
1.739155414737804E12	128.0	3.4209211771791592	13.289564047999864	
1.739155414739757E12	128.0	3.3498332917491545	13.302185333035629	
1.73915541474171E12	128.0	3.3423566828993976	13.314590253185065	
1.739155414743663E12	128.0	3.30564677385252	13.327211538220828	
1.7391554147456162E12	128.0	3.028940124782736	13.34146758017551	
1.7391554147475693E12	128.0	2.997206608121388	13.33201964680588	
1.7391554147495222E12	128.0	3.0740882643963814	13.319470483398893	
1.7391554147514753E12	128.0	3.0893540091539236	13.311128415003827	
1.7391554147534285E12	128.0	3.1370504463176467	13.302666143894134	
1.7391554147553816E12	128.0	3.3858219845082744	13.28557331787427	
1.7391554147573345E12	128.0	3.397121039683148	13.292448913150897	
1.7391554147592876E12	128.0	3.361973765926413	13.301896846520526	
1.7391554147612407E12	128.0	3.315575518080654	13.315167226215271	
1.7391554147631936E12	128.0	3.3212731267539413	13.32598547053164	
1.7391554147651467E12	128.0	3.1414979467588204	13.341756066690612	
1.7391554147670999E12	128.0	2.972108281307413	13.340505958458499	
1.739155414769053E12	128.0	3.0384601797811404	13.330817619659618	
1.7391554147710059E12	128.0	3.08353619776601	13.320792713259783	
1.739155414772959E12	128.0	3.098249010036271	13.314902780243093	
1.739155414774912E12	128.0	3.2862460557118323	13.298242683995886	
1.7391554147768652E12	128.0	3.427123637253877	13.293073967266954	
1.739155414778818E12	128.0	3.359882238691915	13.306584752390952	
1.7391554147807712E12	128.0	3.3280044787730154	13.320239780772502	
1.7391554147827244E12	128.0	3.32843720854567	13.329110741111924	
1.7391554147846775E12	128.0	3.1228905665346662	13.343775472296334	
1.7391554147866304E12	128.0	2.9659779428614708	13.344568810212868	
1.7391554147885835E12	128.0	3.0100202175005535	13.330384889886963	
1.7391554147905366E12	128.0	3.0738238184242035	13.318460780596032	
1.7391554147924897E12	128.0	3.083103467993355	13.313796915268531	
1.7391554147944426E12	128.0	3.2828082580735196	13.299612994942626	
1.7391554147963958E12	128.0	3.398924080402543	13.296175197304313	
1.7391554147983489E12	128.0	3.378609821630695	13.304228779184276	
1.739155414800302E12	128.0	3.3213933294685676	13.317787645394125	
1.739155414802255E12	128.0	3.3269947759701544	13.329303065455326	
1.739155414804208E12	128.0	3.2627103641879995	13.33466410652766	
1.7391554148061611E12	128.0	3.001197338246982	13.348295094366284	
1.7391554148081143E12	128.0	2.992903350937766	13.337548971678691	
1.7391554148100671E12	128.0	3.073511291366175	13.328413565367091	
1.7391554148120203E12	128.0	3.0941140366531257	13.322523632350402	
1.7391554148139734E12	128.0	3.1434933118216173	13.311729428576959	
1.7391554148159265E12	128.0	3.3886587685734555	13.297088737935473	
1.7391554148178794E12	128.0	3.385966227765826	13.307498293022112	
1.7391554148198325E12	128.0	3.3292786275480544	13.317282793992694	
1.7391554148217856E12	128.0	3.339832425892245	13.328149119394913	
1.7391554148237385E12	128.0	3.257758012345395	13.336923917562634	
1.7391554148256917E12	128.0	2.9980480271237724	13.350627027030034	
1.7391554148276448E12	128.0	3.0009569328177292	13.340722323344826	
1.739155414829598E12	128.0	3.0797858730696688	13.327596186907632	
1.7391554148315508E12	128.0	3.093032212221489	13.321537970090466	
1.739155414833504E12	128.0	3.1602495702405258	13.314037320697784	
1.739155414835457E12	128.0	3.313580153017857	13.306152022618297	
1.7391554148374102E12	128.0	3.4070017028254314	13.305911617189045	
1.739155414839363E12	128.0	3.3356974525090997	13.31822037516678	
1.7391554148413162E12	128.0	3.3197345320067244	13.33151479540445	
1.7391554148432693E12	128.0	3.319782613092575	13.33872695828203	
1.7391554148452224E12	128.0	3.08353619776601	13.35348785163814	
1.7391554148471753E12	128.0	2.9657856185180687	13.351468446032419	
1.7391554148491284E12	128.0	3.0363686525466425	13.33694795810556	
1.7391554148510815E12	128.0	3.0801464812135477	13.329303065455326	
1.7391554148530347E12	128.0	3.0875028873486783	13.326754767905248	
1.7391554148549875E12	128.0	3.3136282341037075	13.309902347314639	
1.7391554148569407E12	128.0	3.399116404745945	13.312258320521314	
1.7391554148588938E12	128.0	3.3387025203747576	13.32334101080986	
1.739155414860847E12	128.0	3.3216818159836707	13.335481484987119	
1.7391554148627998E12	128.0	3.3153351126514012	13.341804147776463	
1.739155414864753E12	128.0	3.078896372981434	13.35562745995849	
1.739155414866706E12	128.0	2.972012119135712	13.354040784125422	
1.7391554148686592E12	128.0	3.049158221382883	13.340770404430677	
1.739155414870612E12	128.0	3.0731026021364456	13.334856430871062	
1.7391554148725652E12	128.0	3.0764923186889077	13.334591984898884	
1.7391554148745183E12	128.0	3.179241599151484	13.32507192990048	
1.7391554148764712E12	128.0	3.3938755663882376	13.313820955811456	
1.7391554148784243E12	128.0	3.3776722404566097	13.318965631997463	
1.7391554148803774E12	128.0	3.315022585593373	13.331394592689824	
1.7391554148823306E12	128.0	3.3081229497738223	13.342405161349594	
1.7391554148842834E12	128.0	3.2252311577675132	13.352261783948952	
1.7391554148862366E12	128.0	2.9775414440085224	13.361325068631777	
1.7391554148881897E12	128.0	3.003601392539508	13.353151284037187	
1.7391554148901428E12	128.0	3.078728089180957	13.34329466143783	
1.7391554148920957E12	128.0	3.0912772525879446	13.338222106880599	
1.7391554148940488E12	128.0	3.20073384452667	13.329447308712878	
1.739155414896002E12	128.0	3.408804743544826	13.31466237481384	
1.739155414897955E12	128.0	3.3732487805583613	13.323893943297142	
1.739155414899908E12	128.0	3.313483990846156	13.33567380933052	
1.739155414901861E12	128.0	3.327307303028183	13.350458743229558	
1.7391554149038142E12	128.0	3.2226107385886595	13.362839622836068	
1.7391554149057673E12	128.0	2.9784790251826077	13.369619055940992	
1.7391554149077202E12	128.0	3.0090105146976924	13.35750262230666	
1.7391554149096733E12	128.0	3.0815889137890635	13.347309432106348	
1.7391554149116265E12	128.0	3.0843295356825435	13.345746796816206	
1.7391554149135796E12	128.0	3.093849590680948	13.340121309771694	
1.7391554149155325E12	128.0	3.3356974525090997	13.322956362123056	
1.7391554149174856E12	128.0	3.401568540124322	13.324999808271704	
1.7391554149194387E12	128.0	3.3336780469033775	13.336707552676307	
1.7391554149213918E12	128.0	3.3191815995194434	13.350338540514931	
1.7391554149233447E12	128.0	3.309469220177637	13.357670906107137	
1.7391554149252979E12	128.0	3.0556972490585546	13.372503921092024	
1.739155414927251E12	128.0	2.980859038932209	13.364209933782808	
1.7391554149292039E12	128.0	3.0493986268121356	13.351252081146091	
1.739155414931157E12	128.0	3.080819616415455	13.344977499442598	
1.73915541493311E12	128.0	3.1018550914750604	13.342357080263744	
1.7391554149350632E12	128.0	3.3473571158278523	13.324494956870273	
1.739155414937016E12	128.0	3.3900290795201955	13.327980835594436	
1.7391554149389692E12	128.0	3.317402599342974	13.338943323168357	
1.7391554149409224E12	128.0	3.3173785588000486	13.353079162408411	
1.7391554149428755E12	128.0	3.306824760455858	13.360411528000617	
1.7391554149448284E12	128.0	3.03886886901087	13.376662935018095	
1.7391554149467815E12	128.0	2.979729133414722	13.371494218289163	
1.7391554149487346E12	128.0	3.0051159467438	13.367888136850373	
1.7391554149506877E12	128.0	3.065866398715941	13.354641797698553	
1.7391554149526406E12	128.0	3.066876101518802	13.350458743229558	
1.7391554149545938E12	128.0	3.228043901289769	13.34009726922877	
1.7391554149565469E12	128.0	3.408900905716527	13.328678011339269	
1.7391554149585E12	128.0	3.3591369818612318	13.339111606968833	
1.739155414960453E12	128.0	3.3257446677380407	13.34928075662622	
1.739155414962406E12	128.0	3.334279060476509	13.357887270993464	
1.7391554149643591E12	128.0	3.1850353699964726	13.369042082910786	
1.7391554149663123E12	128.0	2.9723246461937403	13.373657867152437	
1.7391554149682651E12	128.0	3.0208384618169224	13.363921447267705	
1.7391554149702183E12	128.0	3.087382684634052	13.354882203127806	
1.7391554149721714E12	128.0	3.091421495845496	13.350795310830511	
1.7391554149741245E12	128.0	3.2424922675878527	13.343871634468035	
1.7391554149760774E12	128.0	3.416353474023359	13.331130146717646	
1.7391554149780305E12	128.0	3.3587282926315023	13.344328404783615	
1.7391554149799836E12	128.0	3.3012233139542717	13.35795939262224	
1.7391554149819368E12	128.0	3.313483990846156	13.364282055411584	
1.7391554149838896E12	128.0	3.158518651149907	13.377840921621432	
1.7391554149858428E12	128.0	2.9695119026714845	13.383754895181047	
1.739155414987796E12	128.0	2.975954768175455	13.377119705333675	
1.7391554149897488E12	128.0	3.045960829173823	13.367479447620644	
1.739155414991702E12	128.0	3.076324034888431	13.359810514427485	
1.739155414993655E12	128.0	3.105316929656299	13.354906243670731	
1.7391554149956082E12	128.0	3.3541605894757023	13.340529999001424	
1.739155414997561E12	128.0	3.3764461727674213	13.345650634644505	
1.7391554149995142E12	128.0	3.304829395393061	13.357069892534005	
1.7391554150014673E12	128.0	3.3043966656204065	13.369210366711263	
1.7391554150034204E12	128.0	3.286125852997206	13.374763732126999	
1.7391554150053733E12	128.0	3.0082171767811587	13.390366044485495	
1.7391554150073264E12	128.0	2.9630209560816634	13.38267307074941	
1.7391554150092795E12	128.0	3.040455544843937	13.370099866799498	
1.7391554150112327E12	128.0	3.063149817365386	13.359666271169933	
1.7391554150131855E12	128.0	3.08901744155297	13.35394462195372	
1.7391554150151387E12	128.0	3.3528383596148124	13.33649118778998	
1.7391554150170918E12	128.0	3.3766384971108234	13.340986769317004	
1.739155415019045E12	128.0	3.2926889212158033	13.35755070339251	
1.7391554150209978E12	128.0	3.302160895128357	13.370652799286779	
1.739155415022951E12	128.0	3.2806205686673207	13.37805728650776	
1.739155415024904E12	128.0	3.130271013212722	13.389596747111886	
1.7391554150268572E12	128.0	2.9552558607168034	13.396039612615857	
1.73915541502881E12	128.0	3.0010050139035798	13.383105800522065	
1.7391554150307632E12	128.0	3.049158221382883	13.37348958335196	
1.7391554150327163E12	128.0	3.0691839936396272	13.366061055588053	
1.7391554150346694E12	128.0	3.2588879178628822	13.350362581057857	
1.7391554150366223E12	128.0	3.394356377246743	13.34521790487185	
1.7391554150385754E12	128.0	3.334182898304808	13.359714352255784	
1.7391554150405286E12	128.0	3.3013194761259728	13.370989366887732	
1.7391554150424814E12	128.0	3.2967277324272475	13.379091029853546	
1.7391554150444346E12	128.0	3.1122165654758494	13.394068288095985	
1.7391554150463877E12	128.0	2.9542461579139423	13.395534761214426	
1.7391554150483408E12	128.0	3.0131935691666887	13.382192259890905	
1.7391554150502937E12	128.0	3.0509612621022777	13.37394635366754	
1.7391554150522468E12	128.0	3.047691748264442	13.366517825903633	
1.7391554150542E12	128.0	3.2470359302007274	13.352670473178682	
1.739155415056153E12	128.0	3.389884836262644	13.349617324227173	
1.739155415058106E12	128.0	3.3218260592412223	13.363296393151648	
1.739155415060059E12	128.0	3.2988192596617454	13.374715651041148	
1.7391554150620122E12	128.0	3.291751340041718	13.381999935547503	
1.7391554150639653E12	128.0	3.252012322586257	13.391087260773253	
1.7391554150659182E12	128.0	2.9673963348940613	13.403468140379763	
1.7391554150678713E12	128.0	2.9536932254266612	13.392697977149245	
1.7391554150698245E12	128.0	3.0376668418646067	13.382456705863083	
1.7391554150717776E12	128.0	3.0693041963542536	13.37577343492986	
1.7391554150737305E12	128.0	3.1088749300092378	13.36851319096643	
1.7391554150756836E12	128.0	3.348703386231667	13.351300162231942	
1.7391554150776367E12	128.0	3.3533191704733176	13.36207032546246	
1.7391554150795898E12	128.0	3.2883616234892554	13.37312897520808	
1.7391554150815427E12	128.0	3.2832409878461744	13.384067422239076	
1.7391554150834958E12	128.0	3.227779455317591	13.393491315065779	
1.739155415085449E12	128.0	2.961626604591998	13.402939248435407	
1.739155415087402E12	128.0	2.964006618341599	13.391568071631758	
1.739155415089355E12	128.0	3.0459367886308977	13.381783570661176	
1.739155415091308E12	128.0	3.053197032594327	13.376759097189796	
1.7391554150932612E12	128.0	3.12048651224214	13.368705515309832	
1.739155415095214E12	128.0	3.3613246712674307	13.35562745995849	
1.7391554150971672E12	128.0	3.3420922369272197	13.364041649982331	
1.7391554150991204E12	128.0	3.2870153530854407	13.377840921621432	
1.7391554151010735E12	128.0	3.2946121646498243	13.386255111645275	
1.7391554151030264E12	128.0	3.3033148411887696	13.393972125924284	
1.7391554151049795E12	128.0	3.0768529268327867	13.408372411136517	
1.7391554151069326E12	128.0	2.952755644252576	13.408420492222367	
1.7391554151088857E12	128.0	3.023434840452851	13.39536647741395	
1.7391554151108386E12	128.0	3.06988116938446	13.383802976266898	
1.7391554151127917E12	128.0	3.082093765190494	13.378898705510144	
1.7391554151147449E12	128.0	3.299588557035354	13.362430933606339	
1.739155415116698E12	128.0	3.3963998233953903	13.362286690348787	
1.739155415118651E12	128.0	3.317330477714198	13.369763299198544	
1.739155415120604E12	128.0	3.3065122333978296	13.381831651747026	
1.7391554151225571E12	128.0	3.3077623416299433	13.391159382402028	
1.7391554151245103E12	128.0	3.0738238184242035	13.406905938018076	
1.7391554151264631E12	128.0	2.9632132804250655	13.403540262008539	
1.7391554151284163E12	128.0	3.0342530847692193	13.391399787831281	
1.7391554151303694E12	128.0	3.0632940606229377	13.383057719436215	
1.7391554151323225E12	128.0	3.091205130959169	13.381110435459268	
1.7391554151342754E12	128.0	3.316585220883515	13.364330136497435	
1.7391554151362285E12	128.0	3.385581579079022	13.36435417704036	
1.7391554151381816E12	128.0	3.3567569681116307	13.370773002001405	
1.7391554151401348E12	128.0	3.30062230038114	13.385293489928264	
1.7391554151420876E12	128.0	3.309925990493217	13.397938815506953	
1.7391554151440408E12	128.0	3.223019427818389	13.405319262185008	
1.739155415145994E12	128.0	2.975786484374978	13.413396884607897	
1.739155415147947E12	128.0	2.9996347029568398	13.403299856579286	
1.7391554151499E12	128.0	3.0574522086920988	13.39221716629074	
1.739155415151853E12	128.0	3.070530264043442	13.386207030559424	
1.7391554151538062E12	128.0	3.1631584759344826	13.372720285978351	
1.739155415155759E12	128.0	3.381158119180773	13.360002838770887	
1.7391554151577122E12	128.0	3.345602156194308	13.372455840006173	
1.7391554151596653E12	128.0	3.2975691514296317	13.387096530647659	
1.7391554151616184E12	128.0	3.3149264234216718	13.396568504560213	
1.7391554151635713E12	128.0	3.2113597644996363	13.40815604625019	
1.7391554151655244E12	128.0	2.9659779428614708	13.414262344153206	
1.7391554151674775E12	128.0	2.9862922016333187	13.400294788713628	
1.7391554151694307E12	128.0	3.0544952219122914	13.39221716629074	
1.7391554151713835E12	128.0	3.063871033653144	13.383250043779617	
1.7391554151733367E12	128.0	3.1765490583438547	13.373417461723184	
1.7391554151752898E12	128.0	3.3209365591529876	13.367407325991868	
1.739155415177243E12	128.0	3.3836102545591498	13.371494218289163	
1.7391554151791958E12	128.0	3.311031855467779	13.383802976266898	
1.739155415181149E12	128.0	3.3074257740289896	13.398684072337636	
1.739155415183102E12	128.0	3.2912224480973618	13.401088126630162	
1.7391554151850552E12	128.0	3.0329789359941803	13.41536820912777	
1.739155415187008E12	128.0	2.960328415274034	13.410632222171492	
1.7391554151889612E12	128.0	3.03247408459275	13.402843086263706	
1.7391554151909143E12	128.0	3.061034249587963	13.392649896063395	
1.7391554151928674E12	128.0	3.093849590680948	13.386255111645275	
1.7391554151948203E12	128.0	3.324037789190347	13.371902907518892	
1.7391554151967734E12	128.0	3.3745469698763255	13.375076259185027	
1.7391554151987266E12	128.0	3.3118011528413875	13.38531753047119	
1.7391554152006797E12	128.0	3.3015598815552254	13.397890734421102	
1.7391554152026326E12	128.0	3.2963671242833685	13.408540694936994	
1.7391554152045857E12	128.0	3.030743165502131	13.422820777434602	
1.7391554152065388E12	128.0	2.966362591548275	13.418301155364652	
1.7391554152084917E12	128.0	3.043701018138848	13.409045546338424	
1.7391554152104448E12	128.0	3.0683185340943178	13.400703477943358	
1.739155415212398E12	128.0	3.0785838459234056	13.39582324772953	
1.739155415214351E12	128.0	3.1940505735934464	13.38952462548311	
1.739155415216304E12	128.0	3.384283389761057	13.378393854108714	
1.739155415218257E12	128.0	3.3515642108397734	13.385029043956086	
1.7391554152202102E12	128.0	3.295213178222956	13.400823680657984	
1.7391554152221633E12	128.0	3.301968570784955	13.41048797891394	
1.7391554152241162E12	128.0	3.157244502374868	13.419623385225542	
1.7391554152260693E12	128.0	2.9535249416261844	13.429624251082451	
1.7391554152280225E12	128.0	2.997278729750164	13.414839317183413	
1.7391554152299756E12	128.0	3.041825855790677	13.40546350544256	
1.7391554152319285E12	128.0	3.0647364931984535	13.397169518133344	
1.7391554152338816E12	128.0	3.2175141434885037	13.386255111645275	
1.7391554152358347E12	128.0	3.3925773770702734	13.376037880902038	
1.7391554152377878E12	128.0	3.331081668267449	13.38901977408168	
1.7391554152397407E12	128.0	3.313291666502754	13.403396018750987	
1.7391554152416938E12	128.0	3.2960065161394896	13.416474074102332	
1.739155415243647E12	128.0	3.1517392180449826	13.428470305022039	
1.7391554152456E12	128.0	2.9467455085212597	13.432148508089604	
1.739155415247553E12	128.0	2.996749837805808	13.419046412195335	
1.739155415249506E12	128.0	3.059736060269999	13.407002100189777	
1.7391554152514592E12	128.0	3.069352277440104	13.405824113586439	
1.7391554152534124E12	128.0	3.092407158105432	13.400174585999002	
1.7391554152553652E12	128.0	3.353150886672841	13.384307827668328	
1.7391554152573184E12	128.0	3.3797637676911076	13.388346638879772	
1.7391554152592715E12	128.0	3.3045889899638086	13.402193991604724	
1.7391554152612244E12	128.0	3.3117290312126118	13.416522155188183	
1.7391554152631775E12	128.0	3.2835294743612775	13.421883196260517	
1.7391554152651306E12	128.0	3.0034571492819566	13.4363315625586	
1.7391554152670837E12	128.0	2.9678771457525666	13.42633069670169	
1.7391554152690366E12	128.0	3.035431071372557	13.41464699284001	
1.7391554152709897E12	128.0	3.0564905869750882	13.405848154129364	
1.7391554152729429E12	128.0	3.086757630517995	13.399741856226347	
1.739155415274896E12	128.0	3.334086736133107	13.382552868034784	
1.7391554152768489E12	128.0	3.3599303197777655	13.389091895710456	
1.739155415278802E12	128.0	3.305911219824698	13.402819045720781	
1.7391554152807551E12	128.0	3.289804056064771	13.414406587410758	
1.7391554152827083E12	128.0	3.261460255955886	13.422460169290723	
1.7391554152846611E12	128.0	2.9869412962923008	13.436019035500571	
1.7391554152866143E12	128.0	2.968550280954474	13.424695939782772	
1.7391554152885674E12	128.0	3.036777341776372	13.416161547044304	
1.7391554152905205E12	128.0	3.0506006539583987	13.412651627777214	
1.7391554152924734E12	128.0	3.0588225196388388	13.409045546338424	
1.7391554152944265E12	128.0	3.241602767499618	13.394789504383743	
1.7391554152963796E12	128.0	3.3807734704939687	13.387553300963239	
1.7391554152983328E12	128.0	3.31660926142644	13.403275816036361	
1.7391554153002856E12	128.0	3.2929774077309064	13.413204560264495	
1.7391554153022388E12	128.0	3.2926167995870275	13.420825412371805	
1.739155415304192E12	128.0	3.1074084568907967	13.434360238038728	
1.739155415306145E12	128.0	2.9442693325999576	13.436860454502956	
1.739155415308098E12	128.0	3.0048995818574724	13.423469872093584	
1.739155415310051E12	128.0	3.0651692229711083	13.4157768983575	
1.7391554153120042E12	128.0	3.057115641091145	13.411665965517278	
1.739155415313957E12	128.0	3.246795524771475	13.397842653335251	
1.7391554153159102E12	128.0	3.3830573220718687	13.393106666378975	
1.7391554153178633E12	128.0	3.3227155593294575	13.406521289331272	
1.7391554153198164E12	128.0	3.3005501787523643	13.419719547397243	
1.7391554153217693E12	128.0	3.2976653136013327	13.428422223936188	
1.7391554153237224E12	128.0	3.1039706592524836	13.44277442806257	
1.7391554153256755E12	128.0	2.9467214679783345	13.443086955120599	
1.7391554153276287E12	128.0	2.9677569430379402	13.438278846535546	
1.7391554153295815E12	128.0	3.0360320849456888	13.42678746701727	
1.7391554153315347E12	128.0	3.0711312776165736	13.419791669026019	
1.7391554153334878E12	128.0	3.1150773900839557	13.414502749582459	
1.739155415335441E12	128.0	3.3664933879963623	13.398756193966411	
1.7391554153373938E12	128.0	3.357333941141837	13.405679870328887	
1.739155415339347E12	128.0	3.297497029800856	13.418733885137307	
1.7391554153413E12	128.0	3.2962950026545927	13.43181194048865	
1.7391554153432532E12	128.0	3.2548250661085127	13.441067549514877	
1.739155415345206E12	128.0	2.973863240940957	13.45378499672234	
1.7391554153471592E12	128.0	2.968381997153997	13.44186088743141	
1.7391554153491123E12	128.0	3.0359359227739877	13.429552129453675	
1.7391554153510654E12	128.0	3.0583176682374082	13.421186020515684	
1.7391554153530183E12	128.0	3.1086585651229104	13.414406587410758	
1.7391554153549714E12	128.0	3.347982169943909	13.399549531882945	
1.7391554153569246E12	128.0	3.3560117112809476	13.403396018750987	
1.7391554153588777E12	128.0	3.276341352026624	13.416089425415528	
1.7391554153608306E12	128.0	3.2980740028310622	13.428085656335234	
1.7391554153627837E12	128.0	3.232948172046523	13.43587479224302	
1.7391554153647368E12	128.0	3.0737276562525024	13.445298685069723	
1.73915541536669E12	128.0	2.942658616223965	13.44510636072632	
1.7391554153686428E12	128.0	3.0151168126007097	13.431234967458444	
1.739155415370596E12	128.0	3.055000073313722	13.421883196260517	
1.739155415372549E12	128.0	3.080891738044231	13.41541629021362	
1.739155415374502E12	128.0	3.2860777719113554	13.400535194142881	
1.739155415376455E12	128.0	3.3799080109486592	13.393924044838434	
1.7391554153784082E12	128.0	3.316945829027394	13.40414127558167	
1.7391554153803613E12	128.0	3.30427646290578	13.415897101072126	
1.7391554153823142E12	128.0	3.2933380158747854	13.42592200747196	
1.7391554153842673E12	128.0	3.069448439611805	13.442053211774812	
1.7391554153862205E12	128.0	2.9572031446937497	13.440682900828072	
1.7391554153881736E12	128.0	3.029469016727092	13.429840615968779	
1.7391554153901265E12	128.0	3.073222804851072	13.421955317889292	
1.7391554153920796E12	128.0	3.074160386025157	13.4180607499354	
1.7391554153940327E12	128.0	3.3053342467944917	13.398419626365458	
1.7391554153959858E12	128.0	3.394188093446266	13.396592545103138	
1.7391554153979387E12	128.0	3.3238214243040196	13.410752424886118	
1.7391554153998918E12	128.0	3.307089206428036	13.427027872446523	
1.739155415401845E12	128.0	3.3081469903167475	13.434624684010906	
1.739155415403798E12	128.0	3.21672080557197	13.443375441635702	
1.739155415405751E12	128.0	2.9575397122947034	13.45419368595207	
1.739155415407704E12	128.0	2.980642674045882	13.440803103542699	
1.7391554154096572E12	128.0	3.048629329438527	13.430513751170686	
1.7391554154116104E12	128.0	3.0689195476674493	13.418854087851933	
1.7391554154135632E12	128.0	3.1587830971220847	13.412531425062587	
1.7391554154155164E12	128.0	3.3864710791672565	13.402506518662753	
1.7391554154174695E12	128.0	3.3670463204836434	13.414262344153206	
1.7391554154194226E12	128.0	3.300141489522635	13.425104629012502	
1.7391554154213755E12	128.0	3.30564677385252	13.435345900298664	
1.7391554154233286E12	128.0	3.2203268870107595	13.445899698642855	
1.7391554154252817E12	128.0	2.9682617944393708	13.452919537177031	
1.7391554154272346E12	128.0	2.998096108209623	13.441620482002158	
1.7391554154291877E12	128.0	3.068895507124524	13.433831346094372	
1.7391554154311409E12	128.0	3.078896372981434	13.427917372534758	
1.739155415433094E12	128.0	3.1914061138716674	13.418830047309008	
1.7391554154350469E12	128.0	3.3955824449359313	13.4022661132335	
1.739155415437E12	128.0	3.3745469698763255	13.412964154835242	
1.7391554154389531E12	128.0	3.308363355203075	13.42313330449263	
1.7391554154409062E12	128.0	3.3100461932078433	13.4317638594028	
1.7391554154428591E12	128.0	3.3163448154542623	13.440562698113446	
1.7391554154448123E12	128.0	3.0552164382000493	13.45561207798466	
1.7391554154467654E12	128.0	2.9758105249179034	13.453520550750163	
1.7391554154487185E12	128.0	3.0372100715490267	13.440202089969567	
1.7391554154506714E12	128.0	3.0751700888280182	13.430513751170686	
1.7391554154526245E12	128.0	3.090483914671411	13.42587392638611	
1.7391554154545776E12	128.0	3.3220905052134	13.407506951591207	
1.7391554154565308E12	128.0	3.3887549307451565	13.422532290919499	
1.7391554154584836E12	128.0	3.31249832858622	13.439697238568137	
1.7391554154604368E12	128.0	3.2977374352301085	13.454530253553024	
1.73915541546239E12	128.0	3.2876404072014975	13.462607875975912	
1.739155415464343E12	128.0	3.0394698825840014	13.478594837021213	
1.739155415466296E12	128.0	2.9500390629020212	13.471142268714381	
1.739155415468249E12	128.0	3.029949827585597	13.460756754170667	
1.7391554154702021E12	128.0	3.051442072960783	13.451669428944918	
1.7391554154721553E12	128.0	3.0686551016952714	13.447149806874968	
1.7391554154741082E12	128.0	3.321152924039315	13.4318600215745	
1.7391554154760613E12	128.0	3.369762901834198	13.434985292154785	
1.7391554154780144E12	128.0	3.304348584534556	13.443495644350328	
1.7391554154799673E12	128.0	3.291583056241241	13.453592672378939	
1.7391554154819204E12	128.0	3.292015786013896	13.464410916695307	
1.7391554154838735E12	128.0	3.1467868662023784	13.476431188157939	
1.7391554154858267E12	128.0	2.9365763588638734	13.481575864343945	
1.7391554154877795E12	128.0	2.989874242529183	13.469026700936958	
1.7391554154897327E12	128.0	3.031223976360636	13.459242199966376	
1.7391554154916858E12	128.0	3.0605534387294577	13.451308820801039	
1.739155415493639E12	128.0	3.194940073681681	13.441380076572905	
1.7391554154955918E12	128.0	3.3872884576267155	13.428782832080067	
1.739155415497545E12	128.0	3.337644736486046	13.440250171055418	
1.739155415499498E12	128.0	3.2829765418739965	13.455203388754931	
1.7391554155014512E12	128.0	3.2916070967841664	13.46282424086224	
1.739155415503404E12	128.0	3.154984691339893	13.478546755935362	
1.7391554155053572E12	128.0	2.9354224128034607	13.483042337462386	
1.7391554155073103E12	128.0	2.9824457147652765	13.468738214421855	
1.7391554155092634E12	128.0	3.0323298413351982	13.46049230819849	
1.7391554155112163E12	128.0	3.0542307759401135	13.455227429297857	
1.7391554155131694E12	128.0	3.2102538995250742	13.44505827964047	
1.7391554155151226E12	128.0	3.3862066331950786	13.435129535412337	
1.7391554155170757E12	128.0	3.35944950891926	13.442942711863047	
1.7391554155190286E12	128.0	3.2949968133366285	13.45368883455064	
1.7391554155209817E12	128.0	3.2928812455592054	13.466502443929805	
1.7391554155229348E12	128.0	3.2559068905401496	13.472584701289897	
1.739155415524888E12	128.0	2.993720729397225	13.486480135100699	
1.7391554155268408E12	128.0	2.9524431171945476	13.478739080278764	
1.739155415528794E12	128.0	3.0156457045450655	13.467920835962396	
1.739155415530747E12	128.0	3.0588706007246893	13.46241555163251	
1.7391554155327002E12	128.0	3.0793050622111635	13.460251902769237	
1.739155415534653E12	128.0	3.328797816689549	13.442509982090392	
1.7391554155366062E12	128.0	3.3562761572531254	13.444865955297068	
1.7391554155385593E12	128.0	3.282038960699911	13.45866522693617	
1.7391554155405122E12	128.0	3.288890515433611	13.471214390343157	
1.7391554155424653E12	128.0	3.2568204311713096	13.480469999369383	
1.7391554155444185E12	128.0	2.9815321741341165	13.493307649291474	
1.7391554155463716E12	128.0	2.944678021829687	13.485758918812941	
1.7391554155483245E12	128.0	3.016342880289898	13.474531985266843	
1.7391554155502776E12	128.0	3.0512016675315303	13.46551678166987	
1.7391554155522307E12	128.0	3.0899069416412046	13.46063655145604	
1.7391554155541838E12	128.0	3.2238608468207732	13.452102158717572	
1.7391554155561367E12	128.0	3.3684406719733087	13.447005563617417	
1.7391554155580898E12	128.0	3.3158880451386823	13.460444227112639	
1.739155415560043E12	128.0	3.2784809603469722	13.471478836315335	
1.739155415561996E12	128.0	3.2789858117484028	13.480854648056187	
1.739155415563949E12	128.0	3.0963017260593246	13.49429331155141	
1.739155415565902E12	128.0	2.9208778843336765	13.494990487296242	
1.7391554155678552E12	128.0	2.983142890510109	13.481071012942515	
1.7391554155698083E12	128.0	3.0486533699814524	13.472849147262075	
1.7391554155717612E12	128.0	3.063582547138041	13.468113160305798	
1.7391554155737144E12	128.0	3.233188577475776	13.453544591293088	
1.7391554155756675E12	128.0	3.3832015653294203	13.446092022986257	
1.7391554155776206E12	128.0	3.304084138562378	13.460011497339984	
1.7391554155795735E12	128.0	3.271148594754767	13.47383480952201	
1.7391554155815266E12	128.0	3.2842747311919607	13.481407580543468	
1.7391554155834797E12	128.0	3.0882721847222867	13.491841176173033	
1.7391554155854329E12	128.0	2.927032263322544	13.495783825212776	
1.7391554155873857E12	128.0	2.9843689581992976	13.483210621262863	
1.7391554155893389E12	128.0	3.0432923289091187	13.472945309433776	
1.739155415591292E12	128.0	3.0445424371412324	13.465925470899599	
1.7391554155932449E12	128.0	3.0865412656316678	13.463906065293877	
1.739155415595198E12	128.0	3.349785210663304	13.447774860991025	
1.7391554155971511E12	128.0	3.337644736486046	13.455539956355885	
1.7391554155991042E12	128.0	3.2726391084161333	13.470324890254922	
1.7391554156010571E12	128.0	3.277543379172887	13.484532851123753	
1.7391554156030103E12	128.0	3.237515875202323	13.489100554279553	
1.7391554156049634E12	128.0	2.955856874289935	13.501745879858241	
1.7391554156069165E12	128.0	2.947322481551466	13.491528649115004	
1.7391554156088694E12	128.0	3.0087460687255145	13.482080715745376	
1.7391554156108225E12	128.0	3.036320571460792	13.470709538941726	
1.7391554156127756E12	128.0	3.1031292402500994	13.463521416607072	
1.7391554156147288E12	128.0	3.3587282926315023	13.449601942253345	
1.7391554156166816E12	128.0	3.3379572635440744	13.459049875622974	
1.7391554156186348E12	128.0	3.2723746624439554	13.473426120292281	
1.739155415620588E12	128.0	3.2765817574558764	13.485638716098315	
1.739155415622541E12	128.0	3.218283440862112	13.490951676084798	
1.739155415624494E12	128.0	2.9425143729664134	13.50160163660069	
1.739155415626447E12	128.0	2.943860643370228	13.493668257435353	
1.7391554156284001E12	128.0	3.0192998670697055	13.48652821618655	
1.7391554156303533E12	128.0	3.0408642340736667	13.484941540353482	
1.7391554156323062E12	128.0	3.0451674912572892	13.477224526074473	
1.7391554156342593E12	128.0	3.2585513502619285	13.462728078690539	
1.7391554156362124E12	128.0	3.3539201840464496	13.461381808286724	
1.7391554156381655E12	128.0	3.293386096960636	13.472176012060167	
1.7391554156401184E12	128.0	3.2695378783787743	13.486480135100699	
1.7391554156420715E12	128.0	3.266220283455088	13.494365433180185	
1.7391554156440247E12	128.0	3.0355753146301088	13.505063474781927	
1.7391554156459775E12	128.0	2.9138820863424244	13.502394974517223	
1.7391554156479307E12	128.0	2.9723486867366655	13.492706635718342	
1.7391554156498838E12	128.0	3.0311758952747856	13.485806999898792	
1.739155415651837E12	128.0	3.034974301056977	13.479099688422643	
1.7391554156537898E12	128.0	3.2585273097190033	13.462968484119791	
1.739155415655743E12	128.0	3.3489437916609197	13.462127065117407	
1.739155415657696E12	128.0	3.2761249871402964	13.474531985266843	
1.7391554156596492E12	128.0	3.2579984177746475	13.486600337815325	
1.739155415661602E12	128.0	3.2596331746935654	13.495615541412299	
1.7391554156635552E12	128.0	3.015525501830439	13.510929367255692	
1.7391554156655083E12	128.0	2.915949573033997	13.507756015589557	
1.7391554156674614E12	128.0	2.9730699030244234	13.496481000957608	
1.7391554156694143E12	128.0	3.0092990012127956	13.494076946665082	
1.7391554156713674E12	128.0	3.030406597901177	13.487129229759681	
1.7391554156733206E12	128.0	3.1325789053335473	13.477681296390053	
1.7391554156752737E12	128.0	3.3528383596148124	13.466189916871777	
1.7391554156772266E12	128.0	3.330360451979691	13.475782093498957	
1.7391554156791797E12	128.0	3.2641768373064406	13.488138932562542	
1.7391554156811328E12	128.0	3.2761249871402964	13.498548487649181	
1.739155415683086E12	128.0	3.1745296527381326	13.508573394049016	
1.7391554156850388E12	128.0	2.936985048093603	13.518021327418644	
1.739155415686992E12	128.0	2.9537172659695865	13.502467096145999	
1.739155415688945E12	128.0	3.0352868281150056	13.491264203142826	
1.7391554156908982E12	128.0	3.045960829173823	13.485855080984642	
1.739155415692851E12	128.0	3.1459935282858447	13.47602249892821	
1.7391554156948042E12	128.0	3.3578387925432676	13.4615500920872	
