"sep=	"
Shimmer_6749_TimestampSync_Unix_CAL	Shimmer_6749_ECG_EMG_Status1_CAL	Shimmer_6749_ECG_EMG_Status2_CAL	Shimmer_6749_ECG_LA-RA_24BIT_CAL	Shimmer_6749_ECG_LL-LA_24BIT_CAL	Shimmer_6749_ECG_LL-RA_24BIT_CAL	Shimmer_6749_ECG_Vx-RL_24BIT_CAL	
ms	no_units	no_units	mV	mV	mV	mV	
1.739173081620309E12	128.0	128.0	19.19048359280629	-6.064491398869919	13.125992193936373	-605.0000721216288	
1.7391730816222625E12	128.0	128.0	19.238732962457295	-6.169428368738695	13.0693045937186	-605.0000721216288	
1.7391730816242158E12	128.0	128.0	19.241762070865878	-6.388678120217099	12.853083950648779	-605.0000721216288	
1.7391730816261692E12	128.0	128.0	19.248469382342027	-6.688776217553164	12.559693164788863	-605.0000721216288	
1.7391730816281223E12	128.0	128.0	19.35809425808123	-6.91898845660549	12.43910580147574	-605.0000721216288	
1.7391730816300757E12	128.0	128.0	19.37987498997152	-7.206681633792119	12.1731933561794	-605.0000721216288	
1.739173081632029E12	128.0	128.0	19.31662432153515	-7.196151875990855	12.120472445544296	-605.0000721216288	
1.7391730816339824E12	128.0	128.0	19.272485884724365	-7.009933830491759	12.262552054232605	-605.0000721216288	
1.7391730816359358E12	128.0	128.0	19.256547004764915	-6.86496935665242	12.391577648112495	-605.0000721216288	
1.7391730816378892E12	128.0	128.0	19.32484618721559	-6.599561762757514	12.725284424458078	-605.0000721216288	
1.7391730816398425E12	128.0	128.0	19.34489600001526	-6.34980456230695	12.99509143770831	-605.0000721216288	
1.739173081641796E12	128.0	128.0	19.405766654702028	-6.287347231787114	13.118419422914913	-605.0000721216288	
1.739173081643749E12	128.0	128.0	19.421921899547804	-6.461593086909424	12.96032881263838	-605.0000721216288	
1.7391730816457024E12	128.0	128.0	19.415286709700432	-6.71611031485919	12.699176394841242	-605.0000721216288	
1.7391730816476558E12	128.0	128.0	19.446587496589125	-6.942139499442517	12.504447997146608	-605.0000721216288	
1.7391730816496091E12	128.0	128.0	19.556933588616086	-7.1940603487563575	12.362873239859729	-605.0000721216288	
1.7391730816515625E12	128.0	128.0	19.502265394004034	-7.370037122969283	12.132228271034752	-605.0000721216288	
1.7391730816535159E12	128.0	128.0	19.440889887915837	-7.23920848837	12.201681399545837	-605.0000721216288	
1.7391730816554692E12	128.0	128.0	19.409733344284696	-6.982816098072064	12.426917246212632	-605.0000721216288	
1.7391730816574224E12	128.0	128.0	19.477960405106593	-6.710556949443452	12.76740345566314	-605.0000721216288	
1.7391730816593757E12	128.0	128.0	19.500534474913415	-6.470103439104966	13.03043103580845	-605.0000721216288	
1.739173081661329E12	128.0	128.0	19.566381521985715	-6.4068527706686	13.159528751317115	-605.0000721216288	
1.7391730816632825E12	128.0	128.0	19.58700830781559	-6.596388411091379	12.990619896724212	-605.0000721216288	
1.7391730816652358E12	128.0	128.0	19.602370214744834	-6.843332868019685	12.75903734672515	-605.0000721216288	
1.7391730816671892E12	128.0	128.0	19.619174554249593	-7.08227182415388	12.536902730095713	-605.0000721216288	
1.7391730816691426E12	128.0	128.0	19.735434619836166	-7.371335312287249	12.364099307548917	-605.0000721216288	
1.739173081671096E12	128.0	128.0	19.673770627232866	-7.532959882373795	12.14081074485907	-605.0000721216288	
1.739173081673049E12	128.0	128.0	19.657182652614434	-7.505481541810219	12.151701110804215	-605.0000721216288	
1.7391730816750024E12	128.0	128.0	19.59573502489746	-7.303036129836576	12.292698895060886	-605.0000721216288	
1.7391730816769558E12	128.0	128.0	19.637854056102523	-6.948341959517236	12.689512096585286	-605.0000721216288	
1.7391730816789092E12	128.0	128.0	19.59660048444277	-6.750728696671571	12.8458717877712	-605.0000721216288	
1.7391730816808625E12	128.0	128.0	19.73038610582186	-6.515684308491267	13.214701797330594	-605.0000721216288	
1.739173081682816E12	128.0	128.0	19.776183340094487	-6.649037200097702	13.127146139996785	-605.0000721216288	
1.7391730816847693E12	128.0	128.0	19.752238959340925	-6.878383979604717	12.873854979736208	-605.0000721216288	
1.7391730816867224E12	128.0	128.0	19.773442718201007	-7.167375346109312	12.606067372091696	-605.0000721216288	
1.7391730816886758E12	128.0	128.0	19.87758635015325	-7.395712422813467	12.481873927339784	-605.0000721216288	
1.7391730816906292E12	128.0	128.0	19.891938554279633	-7.696964466209945	12.194974088069689	-605.0000721216288	
1.7391730816925825E12	128.0	128.0	19.82414422323039	-7.665375192806149	12.158769030424242	-605.0000721216288	
1.739173081694536E12	128.0	128.0	19.75166198631072	-7.454852158409613	12.296809827901106	-605.0000721216288	
1.7391730816964893E12	128.0	128.0	19.79334828774313	-7.110255016118888	12.68309327162424	-605.0000721216288	
1.7391730816984426E12	128.0	128.0	19.772937866799577	-6.85999296426689	12.912944902532686	-605.0000721216288	
1.739173081700396E12	128.0	128.0	19.859411699701752	-6.640671091159714	13.218740608542038	-605.0000721216288	
1.739173081702349E12	128.0	128.0	19.888260351212068	-6.783688281022107	13.104572070189962	-605.0000721216288	
1.7391730817043025E12	128.0	128.0	19.892731892196167	-7.0206078315505795	12.872124060645588	-605.0000721216288	
1.7391730817062559E12	128.0	128.0	19.90672348817867	-7.298131859079822	12.608591629098848	-605.0000721216288	
1.7391730817082092E12	128.0	128.0	20.02702236497669	-7.5421914508571	12.484830914119591	-605.0000721216288	
1.7391730817101626E12	128.0	128.0	20.05017340781372	-7.738578646013577	12.311594761800142	-605.0000721216288	
1.739173081712116E12	128.0	128.0	19.9688923321834	-7.873157605309201	12.0957347268742	-605.0000721216288	
1.7391730817140693E12	128.0	128.0	19.953386181996606	-7.716797914123287	12.23658826787332	-605.0000721216288	
1.7391730817160225E12	128.0	128.0	19.92965816612937	-7.401193666600426	12.528464499528946	-605.0000721216288	
1.7391730817179758E12	128.0	128.0	19.960093493472755	-7.1248957067603715	12.835197786712383	-605.0000721216288	
1.7391730817199292E12	128.0	128.0	20.01432895831215	-6.884802804565762	13.129526153746387	-605.0000721216288	
1.7391730817218826E12	128.0	128.0	20.06625653103072	-6.871388181613469	13.194868349417252	-605.0000721216288	
1.739173081723836E12	128.0	128.0	20.064814098455205	-7.04851890188681	13.016295196568395	-605.0000721216288	
1.7391730817257893E12	128.0	128.0	20.085008154512426	-7.317965306993164	12.767042847519262	-605.0000721216288	
1.7391730817277427E12	128.0	128.0	20.136070267685685	-7.583661387403177	12.552408880282508	-605.0000721216288	
1.739173081729696E12	128.0	128.0	20.24050238615303	-7.899265634926037	12.341236751226992	-605.0000721216288	
1.7391730817316492E12	128.0	128.0	20.17487170396706	-8.055985934255832	12.118885769711229	-605.0000721216288	
1.7391730817336025E12	128.0	128.0	20.122583523104613	-7.89118801250315	12.231395510601462	-605.0000721216288	
1.739173081735556E12	128.0	128.0	20.088253627807337	-7.58755595535707	12.500697672450267	-605.0000721216288	
1.7391730817375093E12	128.0	128.0	20.137801186776304	-7.298131859079822	12.839669327696482	-605.0000721216288	
1.7391730817394626E12	128.0	128.0	20.186050556427308	-7.009501100719106	13.176549455708201	-605.0000721216288	
1.739173081741416E12	128.0	128.0	20.24836364368959	-7.000918626894785	13.247445016794805	-605.0000721216288	
1.7391730817433694E12	128.0	128.0	20.253412157703895	-7.206393147277014	13.047019010426881	-605.0000721216288	
1.7391730817453225E12	128.0	128.0	20.255792171453496	-7.478291687761745	12.777500483691751	-605.0000721216288	
1.739173081747276E12	128.0	128.0	20.284496579706264	-7.744925349345847	12.539571230360417	-605.0000721216288	
1.7391730817492292E12	128.0	128.0	20.379697129690307	-7.90352081102381	12.476176318666496	-605.0000721216288	
1.7391730817511826E12	128.0	128.0	20.36455158764739	-8.189915798892475	12.174635788754916	-605.0000721216288	
1.739173081753136E12	128.0	128.0	20.282549295729318	-8.097960722203343	12.184588573525975	-605.0000721216288	
1.7391730817550894E12	128.0	128.0	20.22903504717768	-7.8887358771247715	12.340299170052907	-605.0000721216288	
1.7391730817570427E12	128.0	128.0	20.306782162997983	-7.566207953239438	12.740574209758545	-605.0000721216288	
1.739173081758996E12	128.0	128.0	20.27757290334379	-7.332173267861997	12.945399635481792	-605.0000721216288	
1.7391730817609492E12	128.0	128.0	20.384168670674406	-7.092945825212697	13.291222845461709	-605.0000721216288	
1.7391730817629026E12	128.0	128.0	20.395852374536084	-7.249089151512283	13.1467632230238	-605.0000721216288	
1.739173081764856E12	128.0	128.0	20.406742740481228	-7.490624486282407	12.916118254198821	-605.0000721216288	
1.7391730817668093E12	128.0	128.0	20.40602152419347	-7.774711582030246	12.631309942163224	-605.0000721216288	
1.7391730817687627E12	128.0	128.0	20.535119239702137	-8.047403460431514	12.487715779270623	-605.0000721216288	
1.739173081770716E12	128.0	128.0	20.51362699432695	-8.34432820610144	12.169298788225507	-605.0000721216288	
1.7391730817726694E12	128.0	128.0	20.44561629839138	-8.259296805774785	12.186319492616594	-605.0000721216288	
1.7391730817746228E12	128.0	128.0	20.391597198438312	-8.022233011988762	12.36936418644955	-605.0000721216288	
1.739173081776576E12	128.0	128.0	20.449222379830168	-7.6865068300374535	12.762715549792714	-605.0000721216288	
1.7391730817785293E12	128.0	128.0	20.41662340362351	-7.451967293258583	12.964656110364928	-605.0000721216288	
1.7391730817804827E12	128.0	128.0	20.487014113308682	-7.220384743259517	13.266629370049165	-605.0000721216288	
1.739173081782436E12	128.0	128.0	20.52819556333966	-7.382730529633825	13.145465033705836	-605.0000721216288	
1.7391730817843894E12	128.0	128.0	20.523796143984338	-7.6373920008411424	12.886404143143196	-605.0000721216288	
1.7391730817863428E12	128.0	128.0	20.552067822464448	-7.798295354639931	12.753772467824517	-605.0000721216288	
1.7391730817882961E12	128.0	128.0	20.60803420639446	-8.070554503268541	12.53747970312592	-605.0000721216288	
1.7391730817902493E12	128.0	128.0	20.686935268275175	-8.40397279309902	12.282962475176154	-605.0000721216288	
1.7391730817922026E12	128.0	128.0	20.63630588487457	-8.527949872964607	12.108356011909963	-605.0000721216288	
1.739173081794156E12	128.0	128.0	20.597288083706868	-8.328245082884441	12.269043000822426	-605.0000721216288	
1.7391730817961094E12	128.0	128.0	20.554808444357928	-7.971819993474485	12.582988450883443	-605.0000721216288	
1.7391730817980627E12	128.0	128.0	20.56901640522676	-7.656071502694072	12.912944902532686	-605.0000721216288	
1.739173081800016E12	128.0	128.0	20.654696900212397	-7.382586286376272	13.272110613836125	-605.0000721216288	
1.7391730818019695E12	128.0	128.0	20.72883793459391	-7.42167620917275	13.307161725421158	-605.0000721216288	
1.7391730818039229E12	128.0	128.0	20.726025191071653	-7.63551683849297	13.090508352578683	-605.0000721216288	
1.739173081805876E12	128.0	128.0	20.722779717776742	-7.9230657724220475	12.799713945354695	-605.0000721216288	
1.7391730818078293E12	128.0	128.0	20.748455017620923	-8.174842378478333	12.57361263914259	-605.0000721216288	
1.7391730818097827E12	128.0	128.0	20.84502587855171	-8.51229947952026	12.332726399031449	-605.0000721216288	
1.739173081811736E12	128.0	128.0	20.778818223335534	-8.604975772497152	12.173842450838382	-605.0000721216288	
1.7391730818136895E12	128.0	128.0	20.754585356066865	-8.448039108281028	12.306546247785837	-605.0000721216288	
1.7391730818156428E12	128.0	128.0	20.747228949931735	-8.07740605800224	12.669822891929496	-605.0000721216288	
1.7391730818175962E12	128.0	128.0	20.734030691865765	-7.806372977062818	12.927657714802947	-605.0000721216288	
1.7391730818195493E12	128.0	128.0	20.823533633176524	-7.536782328698914	13.28675130447761	-605.0000721216288	
1.7391730818215027E12	128.0	128.0	20.883971558090636	-7.5767377110407015	13.307233847049934	-605.0000721216288	
1.739173081823456E12	128.0	128.0	20.866518123926895	-7.68008800507641	13.186430118850485	-605.0000721216288	
1.7391730818254094E12	128.0	128.0	20.87827394941735	-7.953140491621554	12.925133457795795	-605.0000721216288	
1.7391730818273628E12	128.0	128.0	20.87892304407633	-8.246747642367797	12.632175401708533	-605.0000721216288	
1.7391730818293162E12	128.0	128.0	20.99424552848882	-8.50609701944554	12.488148509043278	-605.0000721216288	
1.7391730818312695E12	128.0	128.0	20.956093186866426	-8.78419802000499	12.171895166861436	-605.0000721216288	
1.739173081833223E12	128.0	128.0	20.913974155661364	-8.690007172823808	12.223966982837556	-605.0000721216288	
1.739173081835176E12	128.0	128.0	20.86796055650241	-8.441908769835088	12.426051786667323	-605.0000721216288	
1.7391730818371294E12	128.0	128.0	20.918734183160566	-8.078704247320205	12.840029935840361	-605.0000721216288	
1.7391730818390828E12	128.0	128.0	20.911882628426866	-7.795843219261554	13.116039409165312	-605.0000721216288	
1.7391730818410361E12	128.0	128.0	21.008381367728873	-7.63962777133319	13.368753596395683	-605.0000721216288	
1.7391730818429895E12	128.0	128.0	21.01732444969707	-7.822816708423698	13.194507741273373	-605.0000721216288	
1.7391730818449429E12	128.0	128.0	21.04927433124475	-8.080002436638171	12.969271894606578	-605.0000721216288	
1.7391730818468962E12	128.0	128.0	21.053817993857624	-8.373393222498088	12.680424771359537	-605.0000721216288	
1.7391730818488494E12	128.0	128.0	21.15514888228761	-8.678251347333354	12.476897534954254	-605.0000721216288	
1.7391730818508027E12	128.0	128.0	21.13336815039732	-8.961184497020781	12.172183653376539	-605.0000721216288	
1.739173081852756E12	128.0	128.0	21.082450280481613	-8.854949337834043	12.22750094264757	-605.0000721216288	
1.7391730818547095E12	128.0	128.0	21.03867245181471	-8.57778591844868	12.460886533366029	-605.0000721216288	
1.7391730818566628E12	128.0	128.0	21.086200605177954	-8.21349957150216	12.872701033675794	-605.0000721216288	
1.7391730818586162E12	128.0	128.0	21.06636715726461	-7.956602329802793	13.109764827461818	-605.0000721216288	
1.7391730818605696E12	128.0	128.0	21.156086463461694	-7.773701879227385	13.382384584234309	-605.0000721216288	
1.739173081862523E12	128.0	128.0	21.16575076171765	-7.879215822126367	13.286534939591283	-605.0000721216288	
1.739173081864476E12	128.0	128.0	21.17671324929157	-8.124068751820177	13.052644497471393	-605.0000721216288	
1.7391730818664294E12	128.0	128.0	21.204768562885352	-8.420632889346228	12.784135673539124	-605.0000721216288	
1.7391730818683828E12	128.0	128.0	21.23462691719853	-8.679982266423972	12.554644650774557	-605.0000721216288	
1.7391730818703362E12	128.0	128.0	21.29773334237735	-9.03849888306843	12.259234459308919	-605.0000721216288	
1.7391730818722896E12	128.0	128.0	21.248906999696136	-9.086243401318	12.162663598378135	-605.0000721216288	
1.739173081874243E12	128.0	128.0	21.201162481446563	-8.891010152221936	12.310152329224627	-605.0000721216288	
1.7391730818761963E12	128.0	128.0	21.21133163110395	-8.498019397022652	12.713312234081297	-605.0000721216288	
1.7391730818781494E12	128.0	128.0	21.203037643794733	-8.23607364130898	12.966964002485753	-605.0000721216288	
1.7391730818801028E12	128.0	128.0	21.27011075855622	-7.898472297009505	13.371638461546716	-605.0000721216288	
1.7391730818820562E12	128.0	128.0	21.343891184793854	-8.001678347787662	13.342212837006192	-605.0000721216288	
1.7391730818840095E12	128.0	128.0	21.29960850472552	-8.22532751862139	13.07428098610413	-605.0000721216288	
1.739173081885963E12	128.0	128.0	21.324201980138064	-8.519655885655391	12.804546094482673	-605.0000721216288	
1.7391730818879163E12	128.0	128.0	21.392861770732615	-8.784847114663973	12.608014656068642	-605.0000721216288	
1.7391730818898696E12	128.0	128.0	21.43887536989157	-9.156634111003173	12.282241258888396	-605.0000721216288	
1.739173081891823E12	128.0	128.0	21.407935191146755	-9.181660316188374	12.226274874958381	-605.0000721216288	
1.7391730818937761E12	128.0	128.0	21.34223238733201	-8.967314835466725	12.374917551865286	-605.0000721216288	
1.7391730818957295E12	128.0	128.0	21.334659616310553	-8.59971089359652	12.734948722714034	-605.0000721216288	
1.7391730818976829E12	128.0	128.0	21.335669319113414	-8.325288096104634	13.01038122300878	-605.0000721216288	
1.7391730818996362E12	128.0	128.0	21.35232941536062	-8.184073946961636	13.168255468398986	-605.0000721216288	
1.7391730819015896E12	128.0	128.0	21.443058424360565	-8.044879203424358	13.398179220936207	-605.0000721216288	
1.739173081903543E12	128.0	128.0	21.487052617913797	-8.234775451991014	13.252277165922782	-605.0000721216288	
1.7391730819054963E12	128.0	128.0	21.47688346825641	-8.534296576296875	12.942586891959536	-605.0000721216288	
1.7391730819074495E12	128.0	128.0	21.480201063180097	-8.819898226249006	12.660302836931091	-605.0000721216288	
1.7391730819094028E12	128.0	128.0	21.621270969065545	-9.15930261126788	12.461968357797666	-605.0000721216288	
1.7391730819113562E12	128.0	128.0	21.55181784055446	-9.432571462699352	12.119246377855108	-605.0000721216288	
1.7391730819133096E12	128.0	128.0	21.537177149912974	-9.29106882704125	12.246108322871724	-605.0000721216288	
1.739173081915263E12	128.0	128.0	21.451424533298557	-8.936014048578029	12.515410484720528	-605.0000721216288	
1.7391730819172163E12	128.0	128.0	21.496139943139546	-8.551461523945513	12.944678419194034	-605.0000721216288	
1.7391730819191697E12	128.0	128.0	21.488783537004416	-8.256916792025184	13.231866744979232	-605.0000721216288	
1.739173081921123E12	128.0	128.0	21.58759016842725	-8.117938413374237	13.469651755053015	-605.0000721216288	
1.7391730819230762E12	128.0	128.0	21.591773222896247	-8.338846962314483	13.252926260581765	-605.0000721216288	
1.7391730819250295E12	128.0	128.0	21.59530718270626	-8.639882640824634	12.955424541881627	-605.0000721216288	
1.739173081926983E12	128.0	128.0	21.62206430698208	-8.944812887288677	12.677251419693402	-605.0000721216288	
1.7391730819289363E12	128.0	128.0	21.736088602076602	-9.297415530373517	12.438673071703086	-605.0000721216288	
1.7391730819308896E12	128.0	128.0	21.703994477271376	-9.542412703324878	12.161581773946498	-605.0000721216288	
1.739173081932843E12	128.0	128.0	21.66980882523165	-9.379922673693022	12.28988615153863	-605.0000721216288	
1.7391730819347964E12	128.0	128.0	21.634613470389066	-9.035109166515968	12.599504303873099	-605.0000721216288	
1.7391730819367498E12	128.0	128.0	21.662740905611624	-8.848169904729117	12.814571000882507	-605.0000721216288	
1.739173081938703E12	128.0	128.0	21.643845038872367	-8.560765214057591	13.083079824814776	-605.0000721216288	
1.7391730819406562E12	128.0	128.0	21.749286860142572	-8.263119252099902	13.48616760804267	-605.0000721216288	
1.7391730819426096E12	128.0	128.0	21.758446306997097	-8.385437534503641	13.373008772493456	-605.0000721216288	
1.739173081944563E12	128.0	128.0	21.778784606311874	-8.65589364241286	13.122890963899014	-605.0000721216288	
1.7391730819465164E12	128.0	128.0	21.775322768130636	-8.994721054401525	12.78060171372911	-605.0000721216288	
1.7391730819484697E12	128.0	128.0	21.853286248837264	-9.248805552578636	12.604480696258628	-605.0000721216288	
1.739173081950423E12	128.0	128.0	21.885019765498612	-9.634151415127686	12.250868350370926	-605.0000721216288	
1.7391730819523762E12	128.0	128.0	21.821408488918365	-9.614245845585568	12.207162643332797	-605.0000721216288	
1.7391730819543296E12	128.0	128.0	21.761908145178335	-9.363551063960916	12.39835708121742	-605.0000721216288	
1.739173081956283E12	128.0	128.0	21.790612553431103	-8.977700350010439	12.812912203420664	-605.0000721216288	
1.7391730819582363E12	128.0	128.0	21.777702781880237	-8.686112604869917	13.09159017701032	-605.0000721216288	
1.7391730819601897E12	128.0	128.0	21.887399779248213	-8.398563670940838	13.488836108307375	-605.0000721216288	
1.739173081962143E12	128.0	128.0	21.92786001299143	-8.52939230554012	13.39846770745131	-605.0000721216288	
1.7391730819640964E12	128.0	128.0	21.911560524888102	-8.776697370612307	13.134863154275795	-605.0000721216288	
1.7391730819660498E12	128.0	128.0	21.913075079092394	-9.102759254307658	12.810315824784736	-605.0000721216288	
1.739173081968003E12	128.0	128.0	22.011593224000123	-9.391750620812251	12.619842603187871	-605.0000721216288	
1.7391730819699563E12	128.0	128.0	22.02046418433955	-9.775437685899462	12.245026498440087	-605.0000721216288	
1.7391730819719097E12	128.0	128.0	21.950866812570908	-9.755387873099789	12.19547893947112	-605.0000721216288	
1.739173081973863E12	128.0	128.0	21.90867565973707	-9.489980279204879	12.418695380532192	-605.0000721216288	
1.7391730819758164E12	128.0	128.0	21.918339957993027	-9.296838557343312	12.621501400649715	-605.0000721216288	
1.7391730819777698E12	128.0	128.0	21.953318947949285	-8.932624332025567	13.020694615923718	-605.0000721216288	
1.7391730819797231E12	128.0	128.0	21.963920827379326	-8.627405599046421	13.336515228332905	-605.0000721216288	
1.7391730819816763E12	128.0	128.0	22.05198133611457	-8.551750010460617	13.500231325653951	-605.0000721216288	
1.7391730819836296E12	128.0	128.0	22.036835794071653	-8.786505912125817	13.250329881945836	-605.0000721216288	
1.739173081985583E12	128.0	128.0	22.04837525467578	-9.107952011579517	12.940423243096262	-605.0000721216288	
1.7391730819875364E12	128.0	128.0	22.076935419670992	-9.417425920656434	12.659509499014558	-605.0000721216288	
1.7391730819894897E12	128.0	128.0	22.164563198633576	-9.745290845071178	12.419272353562398	-605.0000721216288	
1.739173081991443E12	128.0	128.0	22.122155680913412	-9.93958651299316	12.182569167920253	-605.0000721216288	
1.7391730819933965E12	128.0	128.0	22.087176690957154	-9.74615630461649	12.341020386340665	-605.0000721216288	
1.7391730819953499E12	128.0	128.0	22.065972932097072	-9.383889363275692	12.68208356882138	-605.0000721216288	
1.739173081997303E12	128.0	128.0	22.097417962243316	-9.05270684393726	13.044711118306056	-605.0000721216288	
1.7391730819992563E12	128.0	128.0	22.123453870231376	-8.764653058606752	13.358800811624624	-605.0000721216288	
1.7391730820012097E12	128.0	128.0	22.177040240411788	-8.6846701722944	13.492370068117388	-605.0000721216288	
1.739173082003163E12	128.0	128.0	22.17545356457872	-8.931758872480259	13.243694692098462	-605.0000721216288	
1.7391730820051165E12	128.0	128.0	22.177833578328322	-9.246281295571482	12.93155228275684	-605.0000721216288	
1.7391730820070698E12	128.0	128.0	22.210288311277427	-9.537724797454452	12.672563513822976	-605.0000721216288	
1.7391730820090232E12	128.0	128.0	22.30058459050472	-9.906771171900175	12.393813418604545	-605.0000721216288	
1.7391730820109763E12	128.0	128.0	22.2535612885429	-10.113832368115467	12.139728920427434	-605.0000721216288	
1.7391730820129297E12	128.0	128.0	22.237694530212227	-10.064501174032827	12.1731933561794	-605.0000721216288	
1.739173082014883E12	128.0	128.0	22.184829376319573	-9.790366863056047	12.394462513263527	-605.0000721216288	
1.7391730820168364E12	128.0	128.0	22.227597502183617	-9.36780624005869	12.859791262124928	-605.0000721216288	
1.7391730820187898E12	128.0	128.0	22.182737849085076	-9.06951118344202	13.113226665643056	-605.0000721216288	
1.7391730820207432E12	128.0	128.0	22.293083941112037	-8.757440895729173	13.535643045382864	-605.0000721216288	
1.7391730820226965E12	128.0	128.0	22.300440347247168	-8.923825493314922	13.376614853932246	-605.0000721216288	
1.73917308202465E12	128.0	128.0	22.30967191573047	-9.184833667854509	13.12483824787596	-605.0000721216288	
1.739173082026603E12	128.0	128.0	22.320850768190716	-9.516232552079268	12.804618216111448	-605.0000721216288	
1.7391730820285564E12	128.0	128.0	22.41605131817476	-9.82750950187558	12.588541816299179	-605.0000721216288	
1.7391730820305098E12	128.0	128.0	22.411363412304333	-10.215163256545456	12.196200155758877	-605.0000721216288	
1.7391730820324631E12	128.0	128.0	22.33671752652139	-10.154220480229913	12.182497046291477	-605.0000721216288	
1.7391730820344165E12	128.0	128.0	22.3262598903489	-9.859098775279378	12.467161115069523	-605.0000721216288	
1.7391730820363699E12	128.0	128.0	22.349338811557153	-9.451467329438607	12.897871482118546	-605.0000721216288	
1.7391730820383232E12	128.0	128.0	22.362825556138226	-9.171058436758333	13.191767119379893	-605.0000721216288	
1.7391730820402764E12	128.0	128.0	22.452616983964084	-8.899592626046255	13.55302435791783	-605.0000721216288	
1.7391730820422297E12	128.0	128.0	22.497188150547522	-9.085377941772691	13.411810208774831	-605.0000721216288	
1.739173082044183E12	128.0	128.0	22.493509947479957	-9.35439161710639	13.139118330373567	-605.0000721216288	
1.7391730820461365E12	128.0	128.0	22.482547459906037	-9.683771095725428	12.79877636418061	-605.0000721216288	
1.7391730820480898E12	128.0	128.0	22.576738307087222	-10.005649924951785	12.571088382135438	-605.0000721216288	
1.7391730820500432E12	128.0	128.0	22.60587544511264	-10.21696629726485	12.38890914784779	-605.0000721216288	
1.7391730820519966E12	128.0	128.0	22.55329877773509	-10.37736479966221	12.17593397807288	-605.0000721216288	
1.73917308205395E12	128.0	128.0	22.486514149488706	-10.173981806514478	12.312532342974228	-605.0000721216288	
1.739173082055903E12	128.0	128.0	22.486009298087275	-9.783082578549692	12.702926719537583	-605.0000721216288	
1.7391730820578564E12	128.0	128.0	22.500073015698554	-9.446635180310627	13.053437835387927	-605.0000721216288	
1.7391730820598098E12	128.0	128.0	22.54082173595688	-9.130453959757563	13.410367776199315	-605.0000721216288	
1.7391730820617632E12	128.0	128.0	22.58532078091154	-9.102182281277454	13.483138499634087	-605.0000721216288	
1.7391730820637166E12	128.0	128.0	22.602557850188955	-9.357348603886201	13.245209246302753	-605.0000721216288	
1.73917308206567E12	128.0	128.0	22.596860241515667	-9.694445096784246	12.902415144731421	-605.0000721216288	
1.7391730820676233E12	128.0	128.0	22.63090165029784	-9.989206193590903	12.641695456706938	-605.0000721216288	
1.7391730820695764E12	128.0	128.0	22.72256824047187	-10.339212458039814	12.383355782432055	-605.0000721216288	
1.7391730820715298E12	128.0	128.0	22.663067896731842	-10.483455715591397	12.179612181140445	-605.0000721216288	
1.7391730820734832E12	128.0	128.0	22.62405009556414	-10.294136440054947	12.329913655509193	-605.0000721216288	
1.7391730820754365E12	128.0	128.0	22.613664581020426	-9.905400860953435	12.708263720066991	-605.0000721216288	
1.73917308207739E12	128.0	128.0	22.642152624386863	-9.56296736752598	13.079185256860884	-605.0000721216288	
1.7391730820793433E12	128.0	128.0	22.701725089755666	-9.228250888377534	13.473474201378131	-605.0000721216288	
1.7391730820812966E12	128.0	128.0	22.745719283308897	-9.233155159134286	13.512564124174611	-605.0000721216288	
1.73917308208325E12	128.0	128.0	22.7391562150903	-9.476132926479925	13.263023288610375	-605.0000721216288	
1.7391730820852031E12	128.0	128.0	22.74672898611176	-9.789501403510737	12.957227582601021	-605.0000721216288	
1.7391730820871565E12	128.0	128.0	22.77622673228106	-10.089238892702927	12.686987839578133	-605.0000721216288	
1.7391730820891099E12	128.0	128.0	22.843804698443975	-10.274879965171811	12.568924733272164	-605.0000721216288	
1.7391730820910632E12	128.0	128.0	22.831183413408212	-10.648181515715304	12.183001897692908	-605.0000721216288	
1.7391730820930166E12	128.0	128.0	22.806950546139547	-10.543821518876735	12.263129027262812	-605.0000721216288	
1.73917308209497E12	128.0	128.0	22.731511322440067	-10.236583380291865	12.494927942148202	-605.0000721216288	
1.7391730820969233E12	128.0	128.0	22.772692772471046	-9.78402015972378	12.988672612747266	-605.0000721216288	
1.7391730820988767E12	128.0	128.0	22.743050783044193	-9.4964712257947	13.246579557249493	-605.0000721216288	
1.7391730821008298E12	128.0	128.0	22.869552119916932	-9.257027418259076	13.612524701657856	-605.0000721216288	
1.7391730821027832E12	128.0	128.0	22.87200425529531	-9.435961179251812	13.436043076043497	-605.0000721216288	
1.7391730821047366E12	128.0	128.0	22.871932133666533	-9.727044072990903	13.14488806067563	-605.0000721216288	
1.73917308210669E12	128.0	128.0	22.86767695756876	-10.073876985773682	12.79379997179508	-605.0000721216288	
1.7391730821086433E12	128.0	128.0	22.98364853664023	-10.397991585492084	12.585656951148147	-605.0000721216288	
1.7391730821105967E12	128.0	128.0	22.983576415011456	-10.734150497216046	12.24942591779541	-605.0000721216288	
1.73917308211255E12	128.0	128.0	22.92234515218081	-10.621929242840915	12.300415909339895	-605.0000721216288	
1.7391730821145032E12	128.0	128.0	22.880586729119628	-10.318946280353819	12.561640448765809	-605.0000721216288	
1.7391730821164565E12	128.0	128.0	22.919820895173658	-9.906194198869967	13.01362669630369	-605.0000721216288	
1.73917308211841E12	128.0	128.0	22.89544378464744	-9.628381684825621	13.26706209982182	-605.0000721216288	
1.7391730821203633E12	128.0	128.0	23.01271355303688	-9.410646487551512	13.602067065485366	-605.0000721216288	
1.7391730821223167E12	128.0	128.0	23.013795377468515	-9.60703368270799	13.406761694760526	-605.0000721216288	
1.73917308212427E12	128.0	128.0	23.019997837543233	-9.911459077770603	13.10853875977263	-605.0000721216288	
1.7391730821262234E12	128.0	128.0	23.040552501744333	-10.106043232207686	12.934509269536647	-605.0000721216288	
1.7391730821281768E12	128.0	128.0	23.07553149170059	-10.381619975759982	12.69391151594061	-605.0000721216288	
1.73917308213013E12	128.0	128.0	23.14267672809085	-10.750305742061823	12.392370986029029	-605.0000721216288	
1.7391730821320833E12	128.0	128.0	23.06254959852095	-10.83108196629071	12.231467632230238	-605.0000721216288	
1.7391730821340366E12	128.0	128.0	23.037307028449423	-10.616880728826612	12.420426299622811	-605.0000721216288	
1.73917308213599E12	128.0	128.0	23.01004505277217	-10.225548771089167	12.784496281683003	-605.0000721216288	
1.7391730821379434E12	128.0	128.0	23.04863012416722	-9.902443874173628	13.146186249993594	-605.0000721216288	
1.7391730821398967E12	128.0	128.0	23.13056029445652	-9.58438749127239	13.54617280318413	-605.0000721216288	
1.73917308214185E12	128.0	128.0	23.15486528335396	-9.64742179482243	13.50744348853153	-605.0000721216288	
1.7391730821438032E12	128.0	128.0	23.149167674680672	-9.883115277661714	13.266052397018958	-605.0000721216288	
1.7391730821457566E12	128.0	128.0	23.16222168948909	-10.208383823440531	12.95383786604856	-605.0000721216288	
1.73917308214771E12	128.0	128.0	23.201672220429447	-10.510501326382318	12.69117089404713	-605.0000721216288	
1.7391730821496633E12	128.0	128.0	23.269466551478693	-10.878970727797835	12.390495823680858	-605.0000721216288	
1.7391730821516167E12	128.0	128.0	23.200518274369035	-10.947846883278713	12.252671391090322	-605.0000721216288	
1.73917308215357E12	128.0	128.0	23.17866542084997	-10.740497200548315	12.438168220301655	-605.0000721216288	
1.7391730821555234E12	128.0	128.0	23.171381136343616	-10.336471836146336	12.83490930019728	-605.0000721216288	
1.7391730821574768E12	128.0	128.0	23.175203582668733	-10.026348832410434	13.148854750258298	-605.0000721216288	
1.73917308215943E12	128.0	128.0	23.234920291295087	-9.677640757279486	13.557279534015601	-605.0000721216288	
1.7391730821613833E12	128.0	128.0	23.255547077124962	-9.730650154429691	13.524896922695271	-605.0000721216288	
1.7391730821633367E12	128.0	128.0	23.267158659357868	-9.887009845615609	13.38014881374226	-605.0000721216288	
1.73917308216529E12	128.0	128.0	23.27725568738648	-10.187468551095554	13.089787136290925	-605.0000721216288	
1.7391730821672434E12	128.0	128.0	23.258792550419873	-10.500187933467378	12.758604616952494	-605.0000721216288	
1.7391730821691968E12	128.0	128.0	23.40036730770675	-10.804613328529994	12.595753979176758	-605.0000721216288	
1.7391730821711501E12	128.0	128.0	23.359907073963534	-11.091441046171314	12.26846602779222	-605.0000721216288	
1.7391730821731033E12	128.0	128.0	23.30841223101762	-10.95599662733038	12.35241560368724	-605.0000721216288	
1.7391730821750566E12	128.0	128.0	23.241411237884908	-10.64241178541324	12.598999452471668	-605.0000721216288	
1.73917308217701E12	128.0	128.0	23.30120006814004	-10.235213069345127	13.065986998794914	-605.0000721216288	
1.7391730821789634E12	128.0	128.0	23.294420635035117	-9.931364647312721	13.363055987722396	-605.0000721216288	
1.7391730821809167E12	128.0	128.0	23.388106630814868	-9.750699967229362	13.637406663585505	-605.0000721216288	
1.73917308218287E12	128.0	128.0	23.39986245630532	-9.945428364923998	13.454434091381323	-605.0000721216288	
1.7391730821848235E12	128.0	128.0	23.396328496495308	-10.262907774795028	13.13342072170028	-605.0000721216288	
1.7391730821867769E12	128.0	128.0	23.417748620241717	-10.563582845161301	12.854165775080416	-605.0000721216288	
1.73917308218873E12	128.0	128.0	23.520089211474566	-10.885028944615001	12.635060266859565	-605.0000721216288	
1.7391730821906833E12	128.0	128.0	23.467656787354564	-11.197748326986828	12.269908460367736	-605.0000721216288	
1.7391730821926367E12	128.0	128.0	23.41926317444601	-11.035546783870075	12.383716390575934	-605.0000721216288	
1.73917308219459E12	128.0	128.0	23.375341102521553	-10.716985549567408	12.658355552954145	-605.0000721216288	
1.7391730821965435E12	128.0	128.0	23.426042607550933	-10.329764524670187	13.096278082880746	-605.0000721216288	
1.7391730821984968E12	128.0	128.0	23.418181350014372	-10.065222390320587	13.352958959693785	-605.0000721216288	
1.7391730822004502E12	128.0	128.0	23.531195942306038	-9.892346846145017	13.638849096161021	-605.0000721216288	
1.7391730822024033E12	128.0	128.0	23.531917158593796	-10.018631818131427	13.51328534046237	-605.0000721216288	
1.7391730822043567E12	128.0	128.0	23.5277341041248	-10.254253179341935	13.273480924782865	-605.0000721216288	
1.73917308220631E12	128.0	128.0	23.534152929085845	-10.571083494553985	12.96306943453186	-605.0000721216288	
1.7391730822082634E12	128.0	128.0	23.603173327824276	-10.816297032391672	12.786876295432604	-605.0000721216288	
1.7391730822102168E12	128.0	128.0	23.63396926331154	-11.208566571303198	12.42540269200834	-605.0000721216288	
1.7391730822121702E12	128.0	128.0	23.568771310898224	-11.234530357662484	12.33424095323574	-605.0000721216288	
1.7391730822141235E12	128.0	128.0	23.521098914277427	-11.012395741033048	12.50870317324438	-605.0000721216288	
1.739173082216077E12	128.0	128.0	23.539850537759133	-10.62272258075745	12.917127957001682	-605.0000721216288	
1.73917308221803E12	128.0	128.0	23.52960926647297	-10.347290080462706	13.182319186010265	-605.0000721216288	
1.7391730822199834E12	128.0	128.0	23.628055289751924	-10.083541284029637	13.544514005722286	-605.0000721216288	
1.7391730822219368E12	128.0	128.0	23.63995535849993	-10.158403534698909	13.48155182380102	-605.0000721216288	
1.7391730822238901E12	128.0	128.0	23.673131307736792	-10.398280072007188	13.274851235729605	-605.0000721216288	
1.7391730822258435E12	128.0	128.0	23.64356143993872	-10.712297643696981	12.931263796241737	-605.0000721216288	
1.7391730822277969E12	128.0	128.0	23.70998546004122	-10.937749855250102	12.772235604791119	-605.0000721216288	
1.7391730822297502E12	128.0	128.0	23.786939237944992	-11.290280376706171	12.49665886123882	-605.0000721216288	
1.7391730822317036E12	128.0	128.0	23.71734186617635	-11.29605010700823	12.42129175916812	-605.0000721216288	
1.7391730822336567E12	128.0	128.0	23.653730589596105	-11.1084617505624	12.545268839033705	-605.0000721216288	
1.73917308223561E12	128.0	128.0	23.668659766752693	-10.732275334867875	12.936384431884818	-605.0000721216288	
1.7391730822375635E12	128.0	128.0	23.654451805883863	-10.443356089992058	13.211095715891805	-605.0000721216288	
1.7391730822395168E12	128.0	128.0	23.707533324662844	-10.301997697591506	13.405535627071338	-605.0000721216288	
1.7391730822414702E12	128.0	128.0	23.757802099919573	-10.174270293029585	13.583531806889988	-605.0000721216288	
1.7391730822434236E12	128.0	128.0	23.792564724989504	-10.362147135990519	13.430417588998985	-605.0000721216288	
1.739173082245377E12	128.0	128.0	23.75708088363181	-10.637002663255055	13.120078220376756	-605.0000721216288	
1.73917308224733E12	128.0	128.0	23.796098684799517	-10.945971720930546	12.850126963868972	-605.0000721216288	
1.7391730822492834E12	128.0	128.0	23.92130183235429	-11.257320792355632	12.663981039998657	-605.0000721216288	
1.7391730822512368E12	128.0	128.0	23.876297935998195	-11.497630059436567	12.378667876561629	-605.0000721216288	
1.7391730822531902E12	128.0	128.0	23.821701863014923	-11.346174639007408	12.475527224007514	-605.0000721216288	
1.7391730822551436E12	128.0	128.0	23.76847610097839	-11.020761849971041	12.747714251007348	-605.0000721216288	
1.739173082257097E12	128.0	128.0	23.842184405587247	-10.68388172195932	13.158302683627927	-605.0000721216288	
1.7391730822590503E12	128.0	128.0	23.81766305180348	-10.443428211620834	13.374234840182645	-605.0000721216288	
1.7391730822610037E12	128.0	128.0	23.906589020084027	-10.325292983686088	13.581296036397939	-605.0000721216288	
1.7391730822629568E12	128.0	128.0	23.918416967203257	-10.501774609300448	13.41664235790281	-605.0000721216288	
1.7391730822649102E12	128.0	128.0	23.910555709666696	-10.781101677549085	13.12945403211761	-605.0000721216288	
1.7391730822668635E12	128.0	128.0	23.928874603375746	-11.063602097463859	12.865272505911888	-605.0000721216288	
1.739173082268817E12	128.0	128.0	24.04722619619682	-11.350718301620283	12.696507894576538	-605.0000721216288	
1.7391730822707703E12	128.0	128.0	23.96926271549019	-11.563404984880087	12.405857730610101	-605.0000721216288	
1.7391730822727236E12	128.0	128.0	23.93637525276843	-11.434956364030404	12.501418888738025	-605.0000721216288	
1.739173082274677E12	128.0	128.0	23.90363203330422	-11.152167457600529	12.751464575703691	-605.0000721216288	
1.7391730822766301E12	128.0	128.0	23.926206103111042	-10.976551291531479	12.949654811579563	-605.0000721216288	
1.7391730822785835E12	128.0	128.0	23.922239413528374	-10.722106185210489	13.200133228317885	-605.0000721216288	
1.7391730822805369E12	128.0	128.0	24.00590050290829	-10.453164631505564	13.552735871402726	-605.0000721216288	
1.7391730822824902E12	128.0	128.0	24.029340032260425	-10.555144614594536	13.47419541766589	-605.0000721216288	
1.7391730822844436E12	128.0	128.0	24.03251338392656	-10.776702258193763	13.255811125732796	-605.0000721216288	
1.739173082286397E12	128.0	128.0	24.01505994976282	-11.072545179432058	12.94251477033076	-605.0000721216288	
1.7391730822883503E12	128.0	128.0	24.119564189858938	-11.326196947836513	12.793367242022425	-605.0000721216288	
1.7391730822903037E12	128.0	128.0	24.15072073349008	-11.681900820958713	12.468819912531366	-605.0000721216288	
1.7391730822922568E12	128.0	128.0	24.054510480703176	-11.661129791871286	12.39338068883189	-605.0000721216288	
1.7391730822942102E12	128.0	128.0	24.03251338392656	-11.470656570274423	12.561856813652136	-605.0000721216288	
1.7391730822961636E12	128.0	128.0	24.055592305134812	-11.084805856323943	12.97078644881087	-605.0000721216288	
1.739173082298117E12	128.0	128.0	24.043764358015583	-10.805190301560202	13.23857405645538	-605.0000721216288	
1.7391730823000703E12	128.0	128.0	24.132762447924907	-10.531777206871178	13.60098524105373	-605.0000721216288	
1.7391730823020237E12	128.0	128.0	24.156778950307245	-10.648686367116733	13.508092583190512	-605.0000721216288	
1.739173082303977E12	128.0	128.0	24.12605513644876	-10.867936118595138	13.258119017853621	-605.0000721216288	
1.7391730823059302E12	128.0	128.0	24.15259589583825	-11.151662606199098	13.000933289639152	-605.0000721216288	
1.7391730823078835E12	128.0	128.0	24.233732728211013	-11.404809523202124	12.82892320500889	-605.0000721216288	
1.739173082309837E12	128.0	128.0	24.275058421499544	-11.773062559731313	12.501995861768231	-605.0000721216288	
1.7391730823117903E12	128.0	128.0	24.18375243946939	-11.753084868560418	12.430667570908973	-605.0000721216288	
1.7391730823137437E12	128.0	128.0	24.144446151786585	-11.550639456586774	12.593806695199811	-605.0000721216288	
1.739173082315697E12	128.0	128.0	24.152163166065595	-11.38346152108449	12.768701644981105	-605.0000721216288	
1.7391730823176504E12	128.0	128.0	24.180939695947135	-11.068866976364491	13.112072719582644	-605.0000721216288	
1.7391730823196038E12	128.0	128.0	24.20502831995825	-10.795093273531588	13.40993504642666	-605.0000721216288	
1.739173082321557E12	128.0	128.0	24.28832880119429	-10.70703276479635	13.581296036397939	-605.0000721216288	
1.7391730823235103E12	128.0	128.0	24.27650085407506	-10.876951322192113	13.399549531882947	-605.0000721216288	
1.7391730823254636E12	128.0	128.0	24.27289477263627	-11.173731824604493	13.099162948031777	-605.0000721216288	
1.739173082327417E12	128.0	128.0	24.299147045510658	-11.416421105435028	12.88272594007563	-605.0000721216288	
1.7391730823293704E12	128.0	128.0	24.40668039401536	-11.737001745343417	12.669678648671944	-605.0000721216288	
1.7391730823313237E12	128.0	128.0	24.330015102626696	-11.917450060540446	12.41256504208625	-605.0000721216288	
1.739173082333277E12	128.0	128.0	24.290492450057563	-11.777822587230515	12.512669862827048	-605.0000721216288	
1.7391730823352302E12	128.0	128.0	24.27325538078015	-11.474623259857092	12.798632120923058	-605.0000721216288	
1.7391730823371836E12	128.0	128.0	24.29965189691209	-11.128150955218192	13.171500941693896	-605.0000721216288	
1.739173082339137E12	128.0	128.0	24.312922276606834	-10.841755967349528	13.471166309257306	-605.0000721216288	
1.7391730823410903E12	128.0	128.0	24.380716607656076	-10.763864608271673	13.616851999384403	-605.0000721216288	
1.7391730823430437E12	128.0	128.0	24.385837243299157	-10.958953614110186	13.426883629188971	-605.0000721216288	
1.739173082344997E12	128.0	128.0	24.39283304129041	-11.227390316413679	13.16544272487673	-605.0000721216288	
1.7391730823469504E12	128.0	128.0	24.414685894809473	-11.509169520040693	12.90551637476878	-605.0000721216288	
1.7391730823489038E12	128.0	128.0	24.52719563569971	-11.829894403206637	12.697301232493071	-605.0000721216288	
1.739173082350857E12	128.0	128.0	24.48428326657811	-12.010414840032439	12.473868426545671	-605.0000721216288	
1.7391730823528103E12	128.0	128.0	24.45449703389371	-11.975147363561078	12.479349670332631	-605.0000721216288	
1.7391730823547637E12	128.0	128.0	24.39247243314653	-11.76282128844515	12.62965114470138	-605.0000721216288	
1.739173082356717E12	128.0	128.0	24.40105490697085	-11.387500332295934	13.013554574674915	-605.0000721216288	
1.7391730823586704E12	128.0	128.0	24.37876932367913	-11.125049725180832	13.253719598498298	-605.0000721216288	
1.7391730823606238E12	128.0	128.0	24.49784213278796	-10.881350741547434	13.616491391240524	-605.0000721216288	
1.7391730823625771E12	128.0	128.0	24.49798637604551	-10.991191982172962	13.506794393872548	-605.0000721216288	
1.7391730823645303E12	128.0	128.0	24.492937862031205	-11.225515154065507	13.267422707965698	-605.0000721216288	
1.7391730823664836E12	128.0	128.0	24.507722795930245	-11.509530128184574	12.998192667745672	-605.0000721216288	
1.739173082368437E12	128.0	128.0	24.623405888486612	-11.770754667610488	12.852651220876124	-605.0000721216288	
1.7391730823703904E12	128.0	128.0	24.61713130678312	-12.098042618995025	12.519088687788093	-605.0000721216288	
1.7391730823723438E12	128.0	128.0	24.53931206933404	-12.053904182184244	12.485407887149798	-605.0000721216288	
1.739173082374297E12	128.0	128.0	24.5218586351703	-11.847708445514257	12.674150189656043	-605.0000721216288	
1.7391730823762505E12	128.0	128.0	24.505198538923093	-11.485225139287133	13.01997339963596	-605.0000721216288	
1.7391730823782039E12	128.0	128.0	24.504260957749008	-11.22587576220939	13.278385195539618	-605.0000721216288	
1.739173082380157E12	128.0	128.0	24.61604948235148	-10.979219791796183	13.636829690555299	-605.0000721216288	
1.7391730823821104E12	128.0	128.0	24.62838228087214	-11.092234384087847	13.536147896784295	-605.0000721216288	
1.7391730823840637E12	128.0	128.0	24.618213131214755	-11.32042721753445	13.297785913680306	-605.0000721216288	
1.739173082386017E12	128.0	128.0	24.620448901706805	-11.616053773886415	13.00439512782039	-605.0000721216288	
1.7391730823879705E12	128.0	128.0	24.74132475153503	-11.880884394751119	12.86044035678391	-605.0000721216288	
1.7391730823899238E12	128.0	128.0	24.7613745643347	-12.078858265740667	12.682516298594035	-605.0000721216288	
1.7391730823918772E12	128.0	128.0	24.674900731432526	-12.237814335562508	12.437086395870018	-605.0000721216288	
1.7391730823938306E12	128.0	128.0	24.63047380810664	-12.102874768123003	12.527599039983636	-605.0000721216288	
1.7391730823957837E12	128.0	128.0	24.60955853576166	-11.767076464542923	12.842482071218738	-605.0000721216288	
1.739173082397737E12	128.0	128.0	24.638623552158304	-11.428609660698136	13.210013891460168	-605.0000721216288	
1.7391730823996904E12	128.0	128.0	24.66112550033635	-11.138464348133128	13.522661152203222	-605.0000721216288	
1.7391730824016438E12	128.0	128.0	24.71305307305492	-11.105504763782593	13.607548309272326	-605.0000721216288	
1.7391730824035972E12	128.0	128.0	24.713485802827574	-11.319345393102811	13.394140409724763	-605.0000721216288	
1.7391730824055505E12	128.0	128.0	24.73512229146031	-11.604947043054942	13.130175248405369	-605.0000721216288	
1.739173082407504E12	128.0	128.0	24.764259429485733	-11.865955217594532	12.898304211891201	-605.0000721216288	
1.739173082409457E12	128.0	128.0	24.88354860348089	-12.156028408530762	12.727520194950127	-605.0000721216288	
1.7391730824114104E12	128.0	128.0	24.813518501939598	-12.27978912351002	12.533729378429578	-605.0000721216288	
1.7391730824133638E12	128.0	128.0	24.78575167486092	-12.141315596260501	12.644436078600418	-605.0000721216288	
1.7391730824153171E12	128.0	128.0	24.732598034453158	-11.832418660213786	12.900179374239372	-605.0000721216288	
1.7391730824172705E12	128.0	128.0	24.742190211080338	-11.560159511585177	13.182030699495161	-605.0000721216288	
1.7391730824192239E12	128.0	128.0	24.777890417324357	-11.277514848412855	13.500375568911503	-605.0000721216288	
1.7391730824211772E12	128.0	128.0	24.856214506174865	-11.26063838727932	13.595576118895545	-605.0000721216288	
1.7391730824231306E12	128.0	128.0	24.821812489248813	-11.435172728916733	13.38663976033208	-605.0000721216288	
1.7391730824250837E12	128.0	128.0	24.844963532085842	-11.724019852163776	13.120943679922066	-605.0000721216288	
1.739173082427037E12	128.0	128.0	24.848136883751977	-11.862349136155743	12.985787747596234	-605.0000721216288	
1.7391730824289905E12	128.0	128.0	24.969156976837752	-12.11268330963651	12.856473667201241	-605.0000721216288	
1.7391730824309438E12	128.0	128.0	24.930932513586583	-12.42504208386446	12.505890429722124	-605.0000721216288	
1.7391730824328972E12	128.0	128.0	24.88095222484496	-12.350324076452742	12.53062814839222	-605.0000721216288	
1.7391730824348506E12	128.0	128.0	24.832414368678855	-12.143839853267654	12.6885745154112	-605.0000721216288	
1.739173082436804E12	128.0	128.0	24.885135279313957	-11.8037863735898	13.081348905724157	-605.0000721216288	
1.739173082438757E12	128.0	128.0	24.85679147920507	-11.551504916132084	13.305286563072988	-605.0000721216288	
1.7391730824407104E12	128.0	128.0	24.95653569180199	-11.31011382461951	13.646421867182479	-605.0000721216288	
1.7391730824426638E12	128.0	128.0	24.965983625171617	-11.43091755281896	13.535066072352658	-605.0000721216288	
1.7391730824446172E12	128.0	128.0	24.98754799217558	-11.648075777062866	13.339472215112712	-605.0000721216288	
1.7391730824465706E12	128.0	128.0	24.974277612480833	-11.892279612097694	13.08199800038314	-605.0000721216288	
1.739173082448524E12	128.0	128.0	25.05765021534565	-12.126891270505343	12.930758944840306	-605.0000721216288	
1.7391730824504773E12	128.0	128.0	25.057866580231977	-12.425330570379565	12.632536009852412	-605.0000721216288	
1.7391730824524307E12	128.0	128.0	25.002909899104825	-12.388115809931259	12.614794089173566	-605.0000721216288	
1.7391730824543838E12	128.0	128.0	24.94744836657624	-12.162014503719151	12.785433862857088	-605.0000721216288	
1.7391730824563372E12	128.0	128.0	24.962377543732828	-11.842227201727296	13.120150342005532	-605.0000721216288	
1.7391730824582905E12	128.0	128.0	24.941318028130297	-11.603793096994531	13.337524931135766	-605.0000721216288	
1.739173082460244E12	128.0	128.0	25.06103993189811	-11.39752523869577	13.663514693202341	-605.0000721216288	
1.7391730824621973E12	128.0	128.0	25.058732039777286	-11.548620050981052	13.510111988796234	-605.0000721216288	
1.7391730824641506E12	128.0	128.0	25.065439351253435	-11.771475883898246	13.293963467355189	-605.0000721216288	
1.739173082466104E12	128.0	128.0	25.090393434809858	-11.927979818341711	13.162413616468147	-605.0000721216288	
1.7391730824680571E12	128.0	128.0	25.12306453264529	-12.179828546026773	12.943235986618518	-605.0000721216288	
1.7391730824700105E12	128.0	128.0	25.221510555924244	-12.48382121131673	12.737689344607514	-605.0000721216288	
1.7391730824719639E12	128.0	128.0	25.135036723022072	-12.580608437133842	12.55442828588823	-605.0000721216288	
1.7391730824739172E12	128.0	128.0	25.099336516778056	-12.431677273711834	12.667659243066222	-605.0000721216288	
1.7391730824758706E12	128.0	128.0	25.061472661670766	-12.123285189066554	12.938187472604213	-605.0000721216288	
1.739173082477824E12	128.0	128.0	25.07971943375104	-11.831048349267048	13.248671084483993	-605.0000721216288	
1.7391730824797773E12	128.0	128.0	25.133666412075332	-11.53152722496119	13.602139187114142	-605.0000721216288	
1.7391730824817307E12	128.0	128.0	25.198503756344767	-11.535638157801408	13.662865598543359	-605.0000721216288	
1.7391730824836838E12	128.0	128.0	25.18061759240837	-11.740824191668533	13.439793400739838	-605.0000721216288	
1.7391730824856372E12	128.0	128.0	25.199874067291507	-12.032556180066607	13.1673178872249	-605.0000721216288	
1.7391730824875906E12	128.0	128.0	25.248916774859044	-12.289453421765973	12.95946335309307	-605.0000721216288	
1.739173082489544E12	128.0	128.0	25.319523849430546	-12.647393065380225	12.67213078405032	-605.0000721216288	
1.7391730824914973E12	128.0	128.0	25.253244072585595	-12.702205503249827	12.551038569335768	-605.0000721216288	
1.7391730824934507E12	128.0	128.0	25.195979499337614	-12.527094188582204	12.66888531075541	-605.0000721216288	
1.739173082495404E12	128.0	128.0	25.170953294152415	-12.185742519586388	12.985210774566028	-605.0000721216288	
1.7391730824973572E12	128.0	128.0	25.18198790335511	-11.901294815694667	13.280693087660444	-605.0000721216288	
1.7391730824993105E12	128.0	128.0	25.275457534248538	-11.601124596729829	13.67433293751871	-605.0000721216288	
1.739173082501264E12	128.0	128.0	25.300988590835168	-11.63365145130771	13.667337139527458	-605.0000721216288	
1.7391730825032173E12	128.0	128.0	25.313032902840725	-11.737362353487297	13.575670549353427	-605.0000721216288	
1.7391730825051707E12	128.0	128.0	25.272716912355058	-11.964545484131039	13.30817142822402	-605.0000721216288	
1.739173082507124E12	128.0	128.0	25.301060712463944	-12.263273270520363	13.03778744194358	-605.0000721216288	
1.7391730825090774E12	128.0	128.0	25.43030267123016	-12.573684760771366	12.856617910458793	-605.0000721216288	
1.7391730825110308E12	128.0	128.0	25.39755945176595	-12.882798061704404	12.514761390061546	-605.0000721216288	
1.739173082512984E12	128.0	128.0	25.348444622569637	-12.77959201092625	12.568852611643388	-605.0000721216288	
1.7391730825149373E12	128.0	128.0	25.309931672803366	-12.514905633319097	12.795026039484268	-605.0000721216288	
1.7391730825168906E12	128.0	128.0	25.334813634731013	-12.139945285313761	13.194868349417252	-605.0000721216288	
1.739173082518844E12	128.0	128.0	25.313393510984604	-11.846554499453845	13.466839011530759	-605.0000721216288	
1.7391730825207974E12	128.0	128.0	25.386308477676927	-11.650744277327572	13.735564200349355	-605.0000721216288	
1.7391730825227507E12	128.0	128.0	25.4090267907413	-11.822682240329057	13.586344550412244	-605.0000721216288	
1.739173082524704E12	128.0	128.0	25.419772913428893	-12.10446144395607	13.315311469472823	-605.0000721216288	
1.7391730825266572E12	128.0	128.0	25.393232154039403	-12.369796916222205	13.023435237817198	-605.0000721216288	
1.7391730825286106E12	128.0	128.0	25.510934652201495	-12.664053161627434	12.846881490574061	-605.0000721216288	
1.739173082530564E12	128.0	128.0	25.481941757433624	-12.974608895135985	12.50733286229764	-605.0000721216288	
1.7391730825325173E12	128.0	128.0	25.404699493014753	-12.86455128962413	12.540148203390624	-605.0000721216288	
1.7391730825344707E12	128.0	128.0	25.37462477381525	-12.580608437133842	12.794016336681407	-605.0000721216288	
1.739173082536424E12	128.0	128.0	25.428139022366885	-12.19785895322072	13.230280069146165	-605.0000721216288	
1.7391730825383774E12	128.0	128.0	25.421287467633185	-11.930864683492743	13.490422784140442	-605.0000721216288	
1.7391730825403308E12	128.0	128.0	25.495428502014697	-11.801550603097748	13.693877898916949	-605.0000721216288	
1.739173082542284E12	128.0	128.0	25.52882081613789	-11.95596301030672	13.572857805831172	-605.0000721216288	
1.7391730825442373E12	128.0	128.0	25.521608653260312	-12.188050411707215	13.333558241553098	-605.0000721216288	
1.7391730825461907E12	128.0	128.0	25.5136031524662	-12.496442496352495	13.017160656113704	-605.0000721216288	
1.739173082548144E12	128.0	128.0	25.57678169927379	-12.764374347254558	12.812407352019234	-605.0000721216288	
1.7391730825500974E12	128.0	128.0	25.639239029793625	-13.111639989809989	12.527599039983636	-605.0000721216288	
1.7391730825520508E12	128.0	128.0	25.53963906045426	-13.156427521279756	12.383211539174503	-605.0000721216288	
1.7391730825540042E12	128.0	128.0	25.516271652730904	-12.945976608512	12.570295044218904	-605.0000721216288	
1.7391730825559575E12	128.0	128.0	25.486413298417723	-12.57599265289219	12.910420645525534	-605.0000721216288	
1.7391730825579106E12	128.0	128.0	25.506967962618827	-12.25973931071035	13.247228651908477	-605.0000721216288	
1.739173082559864E12	128.0	128.0	25.592143606203035	-11.900717842664463	13.691425763538572	-605.0000721216288	
1.7391730825618174E12	128.0	128.0	25.617458297903337	-11.988706229770926	13.62875206813241	-605.0000721216288	
1.7391730825637708E12	128.0	128.0	25.607577634761054	-12.219351198595906	13.388226436165148	-605.0000721216288	
1.739173082565724E12	128.0	128.0	25.610174013396982	-12.54433125785962	13.065842755537362	-605.0000721216288	
1.7391730825676775E12	128.0	128.0	25.702922428002648	-12.832889894591558	12.87003253341109	-605.0000721216288	
1.7391730825696309E12	128.0	128.0	25.750594824623448	-13.250906854976044	12.499687969647404	-605.0000721216288	
1.739173082571584E12	128.0	128.0	25.641619043543226	-13.289203439855987	12.35241560368724	-605.0000721216288	
1.7391730825735374E12	128.0	128.0	25.627266839416844	-13.055889970766303	12.57137686865054	-605.0000721216288	
1.7391730825754907E12	128.0	128.0	25.628492907106033	-12.625612333489935	13.002880573616098	-605.0000721216288	
1.739173082577444E12	128.0	128.0	25.63282020483258	-12.325442114525094	13.307378090307486	-605.0000721216288	
1.7391730825793975E12	128.0	128.0	25.63368566437789	-12.165332098642839	13.46835356573505	-605.0000721216288	
1.7391730825813508E12	128.0	128.0	25.73321351208848	-11.974354025644542	13.758859486443937	-605.0000721216288	
1.7391730825833042E12	128.0	128.0	25.719366159363528	-12.17694368087574	13.542422478487788	-605.0000721216288	
1.7391730825852576E12	128.0	128.0	25.720447983795165	-12.481729684082232	13.238718299712932	-605.0000721216288	
1.7391730825872107E12	128.0	128.0	25.74482509432138	-12.795386647628145	12.949438446693236	-605.0000721216288	
1.739173082589164E12	128.0	128.0	25.871254309565344	-13.117698206627155	12.75355610293819	-605.0000721216288	
1.7391730825911174E12	128.0	128.0	25.809229708818165	-13.392193125747816	12.417036583070349	-605.0000721216288	
1.7391730825930708E12	128.0	128.0	25.755138487236323	-13.241242556720087	12.513895930516236	-605.0000721216288	
1.7391730825950242E12	128.0	128.0	25.723188605688645	-12.908329118291034	12.81485948739761	-605.0000721216288	
1.7391730825969775E12	128.0	128.0	25.760980339167162	-12.544403379488397	13.216576959678765	-605.0000721216288	
1.739173082598931E12	128.0	128.0	25.747709959472417	-12.240338592569662	13.507371366902754	-605.0000721216288	
1.739173082600884E12	128.0	128.0	25.829495886504162	-12.100855362517283	13.72864052398688	-605.0000721216288	
1.7391730826028374E12	128.0	128.0	25.838150481957257	-12.291617070629249	13.546533411328008	-605.0000721216288	
1.7391730826047908E12	128.0	128.0	25.8237261562021	-12.59813399292636	13.225592163275738	-605.0000721216288	
1.7391730826067441E12	128.0	128.0	25.8398092794191	-12.891452657157501	12.9483566222616	-605.0000721216288	
1.7391730826086975E12	128.0	128.0	25.941645019250515	-13.212466026838545	12.72917899241197	-605.0000721216288	
1.739173082610651E12	128.0	128.0	25.899814474560557	-13.472031768802616	12.427782705757942	-605.0000721216288	
1.7391730826126042E12	128.0	128.0	25.847814780213213	-13.319494523941819	12.528320256271394	-605.0000721216288	
1.7391730826145576E12	128.0	128.0	25.835770468207656	-13.009083033690816	12.82668743451684	-605.0000721216288	
1.7391730826165107E12	128.0	128.0	25.85661361892386	-12.81709525788966	13.0395183610342	-605.0000721216288	
1.739173082618464E12	128.0	128.0	25.836996535896844	-12.513679565629909	13.323316970266935	-605.0000721216288	
1.7391730826204175E12	128.0	128.0	25.912147273081217	-12.200455331856649	13.711691941224569	-605.0000721216288	
1.7391730826223708E12	128.0	128.0	25.935947410577228	-12.297819530703965	13.638127879873263	-605.0000721216288	
1.7391730826243242E12	128.0	128.0	25.953256601483417	-12.529979053733236	13.423277547750182	-605.0000721216288	
1.7391730826262776E12	128.0	128.0	25.941789262508067	-12.851425153186936	13.090364109321131	-605.0000721216288	
1.739173082628231E12	128.0	128.0	26.009872080072416	-13.144671695789304	12.865200384283112	-605.0000721216288	
1.739173082630184E12	128.0	128.0	26.057039625291782	-13.537734572617362	12.51930505267442	-605.0000721216288	
1.7391730826321375E12	128.0	128.0	26.00006353855891	-13.506938637130101	12.493124901428807	-605.0000721216288	
1.7391730826340908E12	128.0	128.0	25.91481577334592	-13.257902652967292	12.65691312037863	-605.0000721216288	
1.7391730826360442E12	128.0	128.0	25.931908599365784	-12.857627613261654	13.07428098610413	-605.0000721216288	
1.7391730826379976E12	128.0	128.0	25.934504978001712	-12.578661153156895	13.355843824844817	-605.0000721216288	
1.739173082639951E12	128.0	128.0	26.016867878063668	-12.302146828430516	13.714721049633152	-605.0000721216288	
1.7391730826419043E12	128.0	128.0	26.058842666011177	-12.406723190155411	13.652119475855766	-605.0000721216288	
1.7391730826438577E12	128.0	128.0	26.041533475104988	-12.644436078600418	13.39709739650457	-605.0000721216288	
1.7391730826458108E12	128.0	128.0	26.032374028250462	-12.936456553513596	13.095917474736867	-605.0000721216288	
1.7391730826477642E12	128.0	128.0	26.12339152376551	-13.213692094527733	12.909699429237776	-605.0000721216288	
1.7391730826497175E12	128.0	128.0	26.173948785537338	-13.562688656173785	12.611260129363552	-605.0000721216288	
1.739173082651671E12	128.0	128.0	26.086609493089856	-13.535787288640416	12.55082220444944	-605.0000721216288	
1.7391730826536243E12	128.0	128.0	26.05487597642851	-13.45811229444889	12.596763681979619	-605.0000721216288	
1.7391730826555776E12	128.0	128.0	26.0266042979484	-13.113515152158161	12.913089145790238	-605.0000721216288	
1.739173082657531E12	128.0	128.0	26.032518271508014	-12.799786066983472	13.232732204524542	-605.0000721216288	
1.7391730826594841E12	128.0	128.0	26.080839762787793	-12.50185161851068	13.578988144277114	-605.0000721216288	
1.7391730826614375E12	128.0	128.0	26.151591080616843	-12.424104502690376	13.727486577926467	-605.0000721216288	
1.7391730826633909E12	128.0	128.0	26.152240175275825	-12.612197710537638	13.540042464738187	-605.0000721216288	
1.7391730826653442E12	128.0	128.0	26.142864363534972	-12.903785455678161	13.239078907856811	-605.0000721216288	
1.7391730826672976E12	128.0	128.0	26.16450085216771	-13.175972482677995	12.988528369489714	-605.0000721216288	
1.739173082669251E12	128.0	128.0	26.260350496810737	-13.481696067058573	12.778654429752164	-605.0000721216288	
1.7391730826712043E12	128.0	128.0	26.21008172155401	-13.677289924298515	12.532791797255493	-605.0000721216288	
1.7391730826731577E12	128.0	128.0	26.170270582469772	-13.522372665688117	12.647897916781655	-605.0000721216288	
1.7391730826751108E12	128.0	128.0	26.135435835771066	-13.205902958619948	12.929532877151118	-605.0000721216288	
1.7391730826770642E12	128.0	128.0	26.14957167501112	-12.872124060645588	13.277447614365533	-605.0000721216288	
1.7391730826790176E12	128.0	128.0	26.176184556029387	-12.557024664524159	13.619159891505229	-605.0000721216288	
1.739173082680971E12	128.0	128.0	26.230131534353678	-12.488148509043278	13.7419830253104	-605.0000721216288	
1.7391730826829243E12	128.0	128.0	26.22789576386163	-12.694344245713262	13.533551518148366	-605.0000721216288	
1.7391730826848777E12	128.0	128.0	26.24679163060089	-12.99667811354138	13.250113517059509	-605.0000721216288	
1.739173082686831E12	128.0	128.0	26.264028699878303	-13.260066301830568	13.003962398047735	-605.0000721216288	
1.7391730826887842E12	128.0	128.0	26.35454134399192	-13.569395967649934	12.785145376341985	-605.0000721216288	
1.7391730826907375E12	128.0	128.0	26.28754035085921	-13.745372741862864	12.542167608996346	-605.0000721216288	
1.739173082692691E12	128.0	128.0	26.264028699878303	-13.698060953385946	12.565967746492356	-605.0000721216288	
1.7391730826946443E12	128.0	128.0	26.24073341378372	-13.480686364255709	12.76004704952801	-605.0000721216288	
1.7391730826965977E12	128.0	128.0	26.243906765449854	-13.105221164848942	13.138685600600912	-605.0000721216288	
1.739173082698551E12	128.0	128.0	26.221116330756704	-12.848828774551006	13.372287556205698	-605.0000721216288	
1.7391730827005044E12	128.0	128.0	26.301027095440283	-12.578228423384243	13.72279867205604	-605.0000721216288	
1.7391730827024578E12	128.0	128.0	26.309248961120723	-12.716269220861106	13.592979740259617	-605.0000721216288	
1.739173082704411E12	128.0	128.0	26.323240557103226	-12.944245689421379	13.378994867681847	-605.0000721216288	
1.7391730827063643E12	128.0	128.0	26.339900653350433	-13.242612867666827	13.097287785683607	-605.0000721216288	
1.7391730827083176E12	128.0	128.0	26.42168658038218	-13.500952541941707	12.920734038440472	-605.0000721216288	
1.739173082710271E12	128.0	128.0	26.447578245112688	-13.835813264347705	12.611764980764983	-605.0000721216288	
1.7391730827122244E12	128.0	128.0	26.351367992325784	-13.775158974547265	12.576209017778519	-605.0000721216288	
1.7391730827141777E12	128.0	128.0	26.32143751638383	-13.548408573676179	12.773028942707652	-605.0000721216288	
1.739173082716131E12	128.0	128.0	26.349348586720062	-13.174818536617583	13.17453005010248	-605.0000721216288	
1.7391730827180845E12	128.0	128.0	26.32576481411038	-12.917416443516785	13.408348370593593	-605.0000721216288	
1.7391730827200376E12	128.0	128.0	26.443178825757364	-12.671553811020113	13.771625014737252	-605.0000721216288	
1.739173082721991E12	128.0	128.0	26.42594175647995	-12.816734649745781	13.60920710673417	-605.0000721216288	
1.7391730827239443E12	128.0	128.0	26.430846027236704	-13.07255006701351	13.358295960223193	-605.0000721216288	
1.7391730827258977E12	128.0	128.0	26.42695145928281	-13.353752297610319	13.073199161672493	-605.0000721216288	
1.739173082727851E12	128.0	128.0	26.5282823477128	-13.618582918475024	12.909699429237776	-605.0000721216288	
1.7391730827298044E12	128.0	128.0	26.55655402619291	-13.814825870373951	12.741728155818958	-605.0000721216288	
1.7391730827317578E12	128.0	128.0	26.50174158832331	-13.943490856109962	12.558250732213347	-605.0000721216288	
1.739173082733711E12	128.0	128.0	26.438563041515714	-13.773716541971748	12.664846499543966	-605.0000721216288	
1.7391730827356643E12	128.0	128.0	26.428177526972	-13.472897228347925	12.955280298624075	-605.0000721216288	
1.7391730827376177E12	128.0	128.0	26.463084395299482	-13.180732510177195	13.282351885122287	-605.0000721216288	
1.739173082739571E12	128.0	128.0	26.444404893446553	-12.864839776139233	13.57956511730732	-605.0000721216288	
1.7391730827415244E12	128.0	128.0	26.514867724760503	-12.818177082321299	13.696690642439204	-605.0000721216288	
1.7391730827434778E12	128.0	128.0	26.551505512178604	-13.029349211376813	13.522156300801791	-605.0000721216288	
1.7391730827454312E12	128.0	128.0	26.538090889226307	-13.320504226744681	13.217586662481626	-605.0000721216288	
1.7391730827473845E12	128.0	128.0	26.5464569981643	-13.554394668864571	12.992062329299728	-605.0000721216288	
1.7391730827493376E12	128.0	128.0	26.652259427578382	-13.88283656630952	12.769422861268863	-605.0000721216288	
1.739173082751291E12	128.0	128.0	26.573430487326444	-13.995562672086082	12.577867815240362	-605.0000721216288	
1.7391730827532444E12	128.0	128.0	26.540182416460805	-13.855358225745945	12.68482419071486	-605.0000721216288	
1.7391730827551978E12	128.0	128.0	26.482557235068946	-13.525834503869355	12.95672273119959	-605.0000721216288	
1.7391730827571511E12	128.0	128.0	26.531455699378935	-13.226673987707377	13.304781711671557	-605.0000721216288	
1.7391730827591045E12	128.0	128.0	26.574945041530736	-12.928955904120912	13.645989137409824	-605.0000721216288	
1.7391730827610579E12	128.0	128.0	26.612159801979043	-12.911574591585946	13.700585210393097	-605.0000721216288	
1.739173082763011E12	128.0	128.0	26.638556318110982	-13.106014502765477	13.532541815345505	-605.0000721216288	
1.7391730827649644E12	128.0	128.0	26.635310844816072	-13.380581543514912	13.25472930130116	-605.0000721216288	
1.7391730827669177E12	128.0	128.0	26.630767182203197	-13.548336452047403	13.082430730155794	-605.0000721216288	
1.739173082768871E12	128.0	128.0	26.747027247789774	-13.801339125792879	12.945688121996895	-605.0000721216288	
1.7391730827708245E12	128.0	128.0	26.71962102885497	-14.108577264377745	12.611043764477225	-605.0000721216288	
1.7391730827727778E12	128.0	128.0	26.65146608966185	-14.02520466151293	12.626261428148918	-605.0000721216288	
1.7391730827747312E12	128.0	128.0	26.602351260465536	-13.803791261171254	12.798559999294282	-605.0000721216288	
1.7391730827766846E12	128.0	128.0	26.64165754814834	-13.471599039029961	13.17005850911838	-605.0000721216288	
1.7391730827786377E12	128.0	128.0	26.57674808225013	-13.175179144761461	13.401568937488669	-605.0000721216288	
1.739173082780591E12	128.0	128.0	26.72149619120314	-12.924123754992932	13.797372436210209	-605.0000721216288	
1.7391730827825444E12	128.0	128.0	26.73058351642889	-13.066131242052464	13.664452274376426	-605.0000721216288	
1.7391730827844978E12	128.0	128.0	26.71377917692413	-13.30521444144421	13.40856473547992	-605.0000721216288	
1.7391730827864512E12	128.0	128.0	26.709307635940032	-13.592979740259617	13.116327895680415	-605.0000721216288	
1.7391730827884045E12	128.0	128.0	26.830760458798466	-13.894808756686302	12.935951702112163	-605.0000721216288	
1.739173082790358E12	128.0	128.0	26.822322228231698	-14.197358989400744	12.624963238830954	-605.0000721216288	
1.739173082792311E12	128.0	128.0	26.743276923093433	-14.117808832861048	12.625468090232385	-605.0000721216288	
1.7391730827942644E12	128.0	128.0	26.699499094426525	-13.858387334154527	12.841111760271998	-605.0000721216288	
1.7391730827962178E12	128.0	128.0	26.736641733246056	-13.516025962355847	13.220615770890209	-605.0000721216288	
1.7391730827981711E12	128.0	128.0	26.70058091885816	-13.228332785169219	13.472248133688943	-605.0000721216288	
1.7391730828001245E12	128.0	128.0	26.798449969106912	-12.987662909944406	13.810787059162505	-605.0000721216288	
1.739173082802078E12	128.0	128.0	26.817922808876375	-13.14164258738072	13.676280221495656	-605.0000721216288	
1.7391730828040312E12	128.0	128.0	26.806311226643473	-13.393563436694556	13.412747789948916	-605.0000721216288	
1.7391730828059846E12	128.0	128.0	26.82967863436683	-13.576752373785064	13.252926260581765	-605.0000721216288	
1.7391730828079377E12	128.0	128.0	26.863864286406553	-13.825211384917663	13.03865290148889	-605.0000721216288	
1.739173082809891E12	128.0	128.0	26.952357524914447	-14.201830530384841	12.750526994529606	-605.0000721216288	
1.7391730828118445E12	128.0	128.0	26.855570299097337	-14.30417112161769	12.551399177479647	-605.0000721216288	
1.7391730828137979E12	128.0	128.0	26.809340335052056	-14.102735412446908	12.706604922605148	-605.0000721216288	
1.7391730828157512E12	128.0	128.0	26.792752360433624	-13.736285416637115	13.05646694379651	-605.0000721216288	
1.7391730828177046E12	128.0	128.0	26.807681537590213	-13.427965453620608	13.379716083969605	-605.0000721216288	
1.739173082819658E12	128.0	128.0	26.865883692012275	-13.096782934282176	13.769100757730099	-605.0000721216288	
1.739173082821611E12	128.0	128.0	26.91802762961717	-13.116327895680415	13.801699733936756	-605.0000721216288	
1.7391730828235645E12	128.0	128.0	26.90432452014977	-13.354617757155628	13.549706762994143	-605.0000721216288	
1.7391730828255178E12	128.0	128.0	26.893001424431972	-13.655941922180883	13.237059502251089	-605.0000721216288	
1.7391730828274712E12	128.0	128.0	26.96187757991285	-13.953371519252242	13.00850606066061	-605.0000721216288	
1.7391730828294246E12	128.0	128.0	27.03169131656782	-14.321552434152657	12.710138882415162	-605.0000721216288	
1.739173082831378E12	128.0	128.0	26.96021878245101	-14.381197021150234	12.579021761300774	-605.0000721216288	
1.7391730828333313E12	128.0	128.0	26.899780857536896	-14.19606080008278	12.703720057454117	-605.0000721216288	
1.7391730828352847E12	128.0	128.0	26.906776655528148	-13.831125358477278	13.07565129705087	-605.0000721216288	
1.7391730828372378E12	128.0	128.0	26.914493669807158	-13.526988449929767	13.38750521987739	-605.0000721216288	
1.7391730828391912E12	128.0	128.0	26.952790254687102	-13.17344822567084	13.779342029016261	-605.0000721216288	
1.7391730828411445E12	128.0	128.0	27.014310004032854	-13.201647782522178	13.812662221510676	-605.0000721216288	
1.739173082843098E12	128.0	128.0	27.025777343008205	-13.33319763340922	13.692579709598984	-605.0000721216288	
1.7391730828450513E12	128.0	128.0	26.99101471793827	-13.589590023707153	13.401424694231117	-605.0000721216288	
1.7391730828470046E12	128.0	128.0	27.006953597897724	-13.900794851874695	13.106158746023029	-605.0000721216288	
1.739173082848958E12	128.0	128.0	27.10330809394218	-14.194978975651143	12.908329118291036	-605.0000721216288	
1.7391730828509111E12	128.0	128.0	27.045178061148892	-14.473440584354472	12.57173747679442	-605.0000721216288	
1.7391730828528645E12	128.0	128.0	26.994620799377063	-14.346650760966632	12.647970038410431	-605.0000721216288	
1.7391730828548179E12	128.0	128.0	26.955530876580582	-14.090474735555022	12.86505614102556	-605.0000721216288	
1.7391730828567712E12	128.0	128.0	27.001472354110764	-13.720562901563992	13.280909452546771	-605.0000721216288	
1.7391730828587246E12	128.0	128.0	26.98762500138581	-13.416714479531583	13.570910521854225	-605.0000721216288	
1.739173082860678E12	128.0	128.0	27.0847728353468	-13.238069205053952	13.846703630292849	-605.0000721216288	
1.7391730828626313E12	128.0	128.0	27.08563829489211	-13.407410789419508	13.678227505472602	-605.0000721216288	
1.7391730828645847E12	128.0	128.0	27.092057119853155	-13.69315668262919	13.398900437223965	-605.0000721216288	
1.7391730828665378E12	128.0	128.0	27.10893358098669	-13.988638995723607	13.120294585263084	-605.0000721216288	
1.7391730828684912E12	128.0	128.0	27.209759618015244	-14.285491619764759	12.924267998250485	-605.0000721216288	
1.7391730828704446E12	128.0	128.0	27.186464331920664	-14.56186170123359	12.624602630687074	-605.0000721216288	
1.739173082872398E12	128.0	128.0	27.0984759448142	-14.454184109471335	12.644291835342866	-605.0000721216288	
1.7391730828743513E12	128.0	128.0	27.06594909023632	-14.167500635087567	12.898448455148753	-605.0000721216288	
1.7391730828763047E12	128.0	128.0	27.096745025723582	-13.777250501781763	13.319494523941819	-605.0000721216288	
1.739173082878258E12	128.0	128.0	27.082609186483527	-13.478594837021214	13.604014349462313	-605.0000721216288	
1.7391730828802114E12	128.0	128.0	27.162159343023223	-13.345169823786	13.816989519237223	-605.0000721216288	
1.7391730828821646E12	128.0	128.0	27.1875461563523	-13.394789504383743	13.792756651968558	-605.0000721216288	
1.739173082884118E12	128.0	128.0	27.18502189934515	-13.633151487487732	13.551870411857417	-605.0000721216288	
1.7391730828860713E12	128.0	128.0	27.180766723247377	-13.946375721260992	13.234391001986385	-605.0000721216288	
1.7391730828880247E12	128.0	128.0	27.255556852287874	-14.233491925417416	13.022064926870458	-605.0000721216288	
1.739173082889978E12	128.0	128.0	27.288949166411065	-14.632108167661212	12.656840998749853	-605.0000721216288	
1.7391730828919314E12	128.0	128.0	27.198436522297445	-14.6494173585674	12.549019163730046	-605.0000721216288	
1.7391730828938848E12	128.0	128.0	27.18105520976248	-14.428292444740825	12.752762765021656	-605.0000721216288	
1.739173082895838E12	128.0	128.0	27.17694427692226	-14.029243472724374	13.147700804197886	-605.0000721216288	
1.7391730828977913E12	128.0	128.0	27.189493440329247	-13.703253710657801	13.486239729671446	-605.0000721216288	
1.7391730828997446E12	128.0	128.0	27.27430847576958	-13.38613490893065	13.88817356683893	-605.0000721216288	
1.739173082901698E12	128.0	128.0	27.260893852817283	-13.459771091910733	13.80112276090655	-605.0000721216288	
1.7391730829036514E12	128.0	128.0	27.28354004425288	-13.704191291831888	13.579348752420993	-605.0000721216288	
1.7391730829056047E12	128.0	128.0	27.26745692103588	-14.027007702232329	13.240449218803551	-605.0000721216288	
1.739173082907558E12	128.0	128.0	27.336693684660638	-14.31325844684344	13.023435237817198	-605.0000721216288	
1.7391730829095115E12	128.0	128.0	27.369653269011174	-14.7063213236715	12.663331945339674	-605.0000721216288	
1.7391730829114646E12	128.0	128.0	27.30258015424969	-14.741011827112656	12.561568327137033	-605.0000721216288	
1.739173082913418E12	128.0	128.0	27.275462421829992	-14.497168600221707	12.778293821608285	-605.0000721216288	
1.7391730829153713E12	128.0	128.0	27.2375985667227	-14.062130935446135	13.175467631276565	-605.0000721216288	
1.7391730829173247E12	128.0	128.0	27.24618104054702	-13.756551594323113	13.489629446223908	-605.0000721216288	
1.739173082919278E12	128.0	128.0	27.275534543458768	-13.62053020245197	13.655004341006798	-605.0000721216288	
1.7391730829212314E12	128.0	128.0	27.362945957535025	-13.484220324065724	13.878725633469301	-605.0000721216288	
1.7391730829231848E12	128.0	128.0	27.348954361552522	-13.680463275964652	13.66849108558787	-605.0000721216288	
1.739173082925138E12	128.0	128.0	27.340804617500858	-13.96815645315128	13.372648164349577	-605.0000721216288	
1.7391730829270913E12	128.0	128.0	27.375495120942013	-14.266523631396728	13.108971489545285	-605.0000721216288	
1.7391730829290447E12	128.0	128.0	27.48194664501508	-14.607442570619888	12.87450407439519	-605.0000721216288	
1.739173082930998E12	128.0	128.0	27.422879031047707	-14.854459149176973	12.568419881870733	-605.0000721216288	
1.7391730829329514E12	128.0	128.0	27.372249647647102	-14.694349133294718	12.677900514352384	-605.0000721216288	
1.7391730829349048E12	128.0	128.0	27.34606949640149	-14.361363573236893	12.984705923164597	-605.0000721216288	
1.7391730829368582E12	128.0	128.0	27.38032727006999	-14.008400322008171	13.37192694806182	-605.0000721216288	
1.7391730829388115E12	128.0	128.0	27.368282958064434	-13.705994332551281	13.662288625513153	-605.0000721216288	
1.7391730829407646E12	128.0	128.0	27.45692043982988	-13.562183804772353	13.894736635057527	-605.0000721216288	
1.739173082942718E12	128.0	128.0	27.4634113864197	-13.763835878829465	13.699575507590236	-605.0000721216288	
1.7391730829446714E12	128.0	128.0	27.45619922354212	-14.061986692188583	13.394212531353539	-605.0000721216288	
1.7391730829466248E12	128.0	128.0	27.46615200831318	-14.368359371228143	13.097792637085037	-605.0000721216288	
1.7391730829485781E12	128.0	128.0	27.56539136950867	-14.65338404815007	12.912007321358601	-605.0000721216288	
1.7391730829505315E12	128.0	128.0	27.541014258982454	-14.910930384508418	12.630083874474035	-605.0000721216288	
1.7391730829524849E12	128.0	128.0	27.491322456755935	-14.774692627750952	12.716629829004983	-605.0000721216288	
1.739173082954438E12	128.0	128.0	27.416532327715437	-14.429157904286136	12.987374423429301	-605.0000721216288	
1.7391730829563914E12	128.0	128.0	27.435788802598573	-14.240343480151115	13.195445322447458	-605.0000721216288	
1.7391730829583447E12	128.0	128.0	27.42143659847219	-13.949909681071006	13.471526917401185	-605.0000721216288	
1.739173082960298E12	128.0	128.0	27.51880079731951	-13.668635328845424	13.850165468474087	-605.0000721216288	
1.7391730829622515E12	128.0	128.0	27.553274935874338	-13.785905097234858	13.76736983863948	-605.0000721216288	
1.7391730829642048E12	128.0	128.0	27.534451190763857	-14.025637391285587	13.50881379947827	-605.0000721216288	
1.7391730829661582E12	128.0	128.0	27.52226263550075	-14.310589946578737	13.211672688922011	-605.0000721216288	
1.7391730829681116E12	128.0	128.0	27.634844498019756	-14.56409747172564	13.070747026294116	-605.0000721216288	
1.7391730829700647E12	128.0	128.0	27.64486940441959	-14.925498953521128	12.719370450898463	-605.0000721216288	
1.739173082972018E12	128.0	128.0	27.572819897272577	-14.909415830304127	12.66340406696845	-605.0000721216288	
1.7391730829739714E12	128.0	128.0	27.498823106148617	-14.662687738262148	12.836135367886468	-605.0000721216288	
1.7391730829759248E12	128.0	128.0	27.53899485337673	-14.284626160219451	13.25436869315728	-605.0000721216288	
1.7391730829778782E12	128.0	128.0	27.520748081296457	-14.041143541472383	13.479604539824074	-605.0000721216288	
1.7391730829798315E12	128.0	128.0	27.603399467873512	-13.777034136895436	13.826365330978076	-605.0000721216288	
1.739173082981785E12	128.0	128.0	27.63664753873915	-13.882764444680744	13.753883094058407	-605.0000721216288	
1.739173082983738E12	128.0	128.0	27.64299424207142	-14.124299779450867	13.518694462620553	-605.0000721216288	
1.7391730829856914E12	128.0	128.0	27.64212878252611	-14.399083185086631	13.24304559743948	-605.0000721216288	
1.7391730829876448E12	128.0	128.0	27.70725461331065	-14.647253709704126	13.060000903606523	-605.0000721216288	
1.7391730829895981E12	128.0	128.0	27.724852290731942	-14.992139338509958	12.732712952221984	-605.0000721216288	
1.7391730829915515E12	128.0	128.0	27.65381248638779	-14.969781633589463	12.684030852798326	-605.0000721216288	
1.739173082993505E12	128.0	128.0	27.625757172794007	-14.890952693337525	12.734804479456482	-605.0000721216288	
1.7391730829954583E12	128.0	128.0	27.60448129230515	-14.588546703880633	13.015934588424516	-605.0000721216288	
1.7391730829974116E12	128.0	128.0	27.63051720029321	-14.2776303622282	13.35288683806501	-605.0000721216288	
1.7391730829993647E12	128.0	128.0	27.641335444609577	-13.985609887315022	13.655725557294556	-605.0000721216288	
1.739173083001318E12	128.0	128.0	27.698239409713675	-13.90339123051062	13.794848179203056	-605.0000721216288	
1.7391730830032715E12	128.0	128.0	27.690666638692218	-14.082685599647236	13.607981039044981	-605.0000721216288	
1.7391730830052249E12	128.0	128.0	27.712952221983937	-14.359055681116066	13.35389654086787	-605.0000721216288	
1.7391730830071782E12	128.0	128.0	27.726727453080112	-14.610904408801128	13.115823044278985	-605.0000721216288	
1.7391730830091316E12	128.0	128.0	27.823658922154777	-14.920883169279477	12.9027757528753	-605.0000721216288	
1.739173083011085E12	128.0	128.0	27.762355537695356	-15.108399404096534	12.653956133598822	-605.0000721216288	
1.739173083013038E12	128.0	128.0	27.719515290202533	-14.938192360185665	12.781322930016868	-605.0000721216288	
1.7391730830149915E12	128.0	128.0	27.665712555135794	-14.650066453226382	13.015646101909413	-605.0000721216288	
1.7391730830169448E12	128.0	128.0	27.712663735468833	-14.369080587515901	13.343583147952932	-605.0000721216288	
1.7391730830188982E12	128.0	128.0	27.722905006754996	-14.05037510995568	13.672529896799315	-605.0000721216288	
1.7391730830208516E12	128.0	128.0	27.75817248322636	-13.956184262774501	13.80198822045186	-605.0000721216288	
1.739173083022805E12	128.0	128.0	27.79329571644017	-14.12891556369252	13.66438015274765	-605.0000721216288	
1.7391730830247583E12	128.0	128.0	27.786227796820143	-14.407737780539726	13.378490016280416	-605.0000721216288	
1.7391730830267117E12	128.0	128.0	27.829140165941737	-14.68179996988773	13.147340196054007	-605.0000721216288	
1.7391730830286648E12	128.0	128.0	27.911791552518793	-15.003606677485308	12.908184875033484	-605.0000721216288	
1.7391730830306182E12	128.0	128.0	27.89296780740831	-15.165736098973287	12.727231708435024	-605.0000721216288	
1.7391730830325715E12	128.0	128.0	27.80440244727164	-15.101764214249162	12.70263823302248	-605.0000721216288	
1.739173083034525E12	128.0	128.0	27.756080955991862	-14.918214669014775	12.837866286977087	-605.0000721216288	
1.7391730830364783E12	128.0	128.0	27.807215190793897	-14.55125982180355	13.255955368990348	-605.0000721216288	
1.7391730830384316E12	128.0	128.0	27.753773063871037	-14.266379388139178	13.487393675731859	-605.0000721216288	
1.739173083040385E12	128.0	128.0	27.873855575782727	-13.997437834434251	13.876417741348476	-605.0000721216288	
1.7391730830423384E12	128.0	128.0	27.88099561703153	-14.12768949600333	13.753306121028201	-605.0000721216288	
1.7391730830442915E12	128.0	128.0	27.865994318246166	-14.377158209938791	13.488836108307375	-605.0000721216288	
1.7391730830462449E12	128.0	128.0	27.87551437324457	-14.67631872610077	13.1991956471438	-605.0000721216288	
1.7391730830481982E12	128.0	128.0	27.970642801599837	-14.952400321054496	13.018242480545341	-605.0000721216288	
1.7391730830501516E12	128.0	128.0	27.955280894670594	-15.2878380164907	12.667442878179894	-605.0000721216288	
1.739173083052105E12	128.0	128.0	27.895275699529137	-15.224875834569435	12.670399864959702	-605.0000721216288	
1.7391730830540583E12	128.0	128.0	27.824163773556208	-14.977642891126026	12.846520882430182	-605.0000721216288	
1.7391730830560117E12	128.0	128.0	27.889505969227073	-14.591359447402889	13.298146521824185	-605.0000721216288	
1.7391730830579648E12	128.0	128.0	27.841905694235052	-14.337563435740881	13.504342258494171	-605.0000721216288	
1.7391730830599182E12	128.0	128.0	27.95758878679142	-14.092998992562174	13.864589794229245	-605.0000721216288	
1.7391730830618716E12	128.0	128.0	27.95124208345915	-14.22022154572267	13.73102053773648	-605.0000721216288	
1.739173083063825E12	128.0	128.0	27.94201051497585	-14.44379859492762	13.49821192004823	-605.0000721216288	
1.7391730830657783E12	128.0	128.0	27.9627094224345	-14.734809367037936	13.227900055396564	-605.0000721216288	
1.7391730830677317E12	128.0	128.0	28.064256675750816	-14.987595675897085	13.07666099985373	-605.0000721216288	
1.739173083069685E12	128.0	128.0	28.100101125252383	-15.200715088929545	12.899386036322838	-605.0000721216288	
1.7391730830716384E12	128.0	128.0	27.98311984337805	-15.351737779586049	12.631382063792	-605.0000721216288	
1.7391730830735916E12	128.0	128.0	27.958021516564074	-15.157225746777742	12.800795769786331	-605.0000721216288	
1.739173083075545E12	128.0	128.0	27.909700025284295	-14.822292902742971	13.087407122541324	-605.0000721216288	
1.7391730830774983E12	128.0	128.0	27.970137950198406	-14.523781481239972	13.446356468958435	-605.0000721216288	
1.7391730830794517E12	128.0	128.0	27.986365316672963	-14.206229949740168	13.780135366932795	-605.0000721216288	
1.739173083081405E12	128.0	128.0	28.03901410567929	-14.173775216791062	13.865238888888227	-605.0000721216288	
1.7391730830833584E12	128.0	128.0	28.032523159089468	-14.37513880433307	13.657384354756399	-605.0000721216288	
1.7391730830853118E12	128.0	128.0	28.056611783100582	-14.683386645720798	13.373225137379784	-605.0000721216288	
1.739173083087265E12	128.0	128.0	28.08647013741376	-14.948361509843053	13.138108627570706	-605.0000721216288	
1.7391730830892183E12	128.0	128.0	28.167534848157747	-15.278822812893726	12.888712035264021	-605.0000721216288	
1.7391730830911716E12	128.0	128.0	28.101759922714226	-15.432153395671058	12.669606527043168	-605.0000721216288	
1.739173083093125E12	128.0	128.0	28.042043214087872	-15.247810512520138	12.794232701567735	-605.0000721216288	
1.7391730830950784E12	128.0	128.0	27.990259884626855	-14.900977599737361	13.089282284889494	-605.0000721216288	
1.7391730830970317E12	128.0	128.0	28.02819586136292	-14.558255619794803	13.469940241568118	-605.0000721216288	
1.739173083098985E12	128.0	128.0	28.0878404483605	-14.256498724996893	13.831341723363606	-605.0000721216288	
1.7391730831009385E12	128.0	128.0	28.12844492536127	-14.239189534090702	13.889255391270567	-605.0000721216288	
1.7391730831028916E12	128.0	128.0	28.133637682633125	-14.470627840832215	13.66300984180091	-605.0000721216288	
1.739173083104845E12	128.0	128.0	28.12498308718003	-14.76062891013967	13.36435417704036	-605.0000721216288	
1.7391730831067983E12	128.0	128.0	28.133781925890677	-14.935523859920963	13.198258065969714	-605.0000721216288	
1.7391730831087517E12	128.0	128.0	28.23222794916963	-15.227400091576586	13.004827857593044	-605.0000721216288	
1.739173083110705E12	128.0	128.0	28.231434611253096	-15.533844892244922	12.697589719008175	-605.0000721216288	
1.7391730831126584E12	128.0	128.0	28.14827837327461	-15.438500099003328	12.709778274271283	-605.0000721216288	
1.7391730831146118E12	128.0	128.0	28.08661438067131	-15.178429505637826	12.908184875033484	-605.0000721216288	
1.739173083116565E12	128.0	128.0	28.123035803203084	-14.798709130133288	13.324326673069796	-605.0000721216288	
1.7391730831185183E12	128.0	128.0	28.12981523630801	-14.529406968284485	13.600408268023523	-605.0000721216288	
1.7391730831204717E12	128.0	128.0	28.20294656788666	-14.29472318824806	13.9082233796386	-605.0000721216288	
1.739173083122425E12	128.0	128.0	28.202802324629108	-14.455410177160521	13.747392147468586	-605.0000721216288	
1.7391730831243784E12	128.0	128.0	28.22140970485326	-14.707403148103134	13.514006556750127	-605.0000721216288	
1.7391730831263318E12	128.0	128.0	28.209653879362808	-15.004976988432048	13.20467689093076	-605.0000721216288	
1.7391730831282852E12	128.0	128.0	28.323317566313456	-15.294473206338074	13.028844359975382	-605.0000721216288	
1.7391730831302385E12	128.0	128.0	28.29324284711395	-15.583536694471444	12.709706152642507	-605.0000721216288	
1.7391730831321917E12	128.0	128.0	28.228910354245944	-15.489490090547811	12.739420263698133	-605.0000721216288	
1.739173083134145E12	128.0	128.0	28.177848241072684	-15.227327969947812	12.950520271124873	-605.0000721216288	
1.7391730831360984E12	128.0	128.0	28.18801739073007	-14.831524471226272	13.356492919503799	-605.0000721216288	
1.7391730831380518E12	128.0	128.0	28.171357294482863	-14.569506593883824	13.601850700599039	-605.0000721216288	
1.7391730831400051E12	128.0	128.0	28.268721493330183	-14.35047320729175	13.918248286038434	-605.0000721216288	
1.7391730831419585E12	128.0	128.0	28.290934954993126	-14.521257224232821	13.769677730760305	-605.0000721216288	
1.7391730831439119E12	128.0	128.0	28.2930986038564	-14.656052548414774	13.637046055441626	-605.0000721216288	
1.739173083145865E12	128.0	128.0	28.3044216995742	-14.955213064576755	13.349208634997444	-605.0000721216288	
1.7391730831478184E12	128.0	128.0	28.33882371650025	-15.255527526799147	13.083296189701104	-605.0000721216288	
1.7391730831497717E12	128.0	128.0	28.39659314114966	-15.615125967875239	12.78146717327442	-605.0000721216288	
1.739173083151725E12	128.0	128.0	28.341636460022507	-15.708884085283767	12.63275237473874	-605.0000721216288	
1.7391730831536785E12	128.0	128.0	28.274130615488367	-15.509467781718707	12.76466283376966	-605.0000721216288	
1.7391730831556318E12	128.0	128.0	28.27889064298757	-15.11020244481593	13.16868819817164	-605.0000721216288	
1.7391730831575852E12	128.0	128.0	28.280477318820637	-14.77159139771359	13.508885921107046	-605.0000721216288	
1.7391730831595386E12	128.0	128.0	28.361830516079728	-14.454039866213783	13.907790649865944	-605.0000721216288	
1.7391730831614917E12	128.0	128.0	28.388731883613097	-14.496375262305172	13.892356621307925	-605.0000721216288	
1.739173083163445E12	128.0	128.0	28.36622993543505	-14.714615310980715	13.651614624454336	-605.0000721216288	
1.7391730831653984E12	128.0	128.0	28.398684668384156	-15.052360898537744	13.346323769846412	-605.0000721216288	
1.7391730831673518E12	128.0	128.0	28.435322455802257	-15.334500710308637	13.10082174549362	-605.0000721216288	
1.7391730831693052E12	128.0	128.0	28.503982246396813	-15.709316815056424	12.79466543134039	-605.0000721216288	
1.7391730831712585E12	128.0	128.0	28.40084831724743	-15.739103047740823	12.661745269506607	-605.0000721216288	
1.739173083173212E12	128.0	128.0	28.38079850444776	-15.550072258719476	12.830726245728284	-605.0000721216288	
1.739173083175165E12	128.0	128.0	28.363056583768916	-15.14821054318077	13.214846040588146	-605.0000721216288	
1.7391730831771184E12	128.0	128.0	28.364138408200553	-14.842631202057744	13.52150720614281	-605.0000721216288	
1.7391730831790718E12	128.0	128.0	28.43135576621959	-14.493418275525364	13.937937490694225	-605.0000721216288	
1.7391730831810251E12	128.0	128.0	28.460492904245008	-14.541307037032489	13.91918586721252	-605.0000721216288	
1.7391730831829785E12	128.0	128.0	28.447006159663935	-14.668962319965638	13.778043839698297	-605.0000721216288	
1.739173083184932E12	128.0	128.0	28.446789794777608	-14.956871862038597	13.489917932739012	-605.0000721216288	
1.7391730831868853E12	128.0	128.0	28.461214120532766	-15.265480311570204	13.195733808962562	-605.0000721216288	
1.7391730831888386E12	128.0	128.0	28.57509417236974	-15.55959231371788	13.015501858651861	-605.0000721216288	
1.7391730831907917E12	128.0	128.0	28.534994546770402	-15.8508915723433	12.684102974427102	-605.0000721216288	
1.739173083192745E12	128.0	128.0	28.45876198515439	-15.714509572328279	12.74425241282611	-605.0000721216288	
1.7391730831946985E12	128.0	128.0	28.416138102547897	-15.398256230146435	13.017881872401462	-605.0000721216288	
1.7391730831966519E12	128.0	128.0	28.44729464617904	-15.043273573311993	13.404021072867046	-605.0000721216288	
1.7391730831986052E12	128.0	128.0	28.429408482242643	-14.733078447947317	13.696330034295325	-605.0000721216288	
1.7391730832005586E12	128.0	128.0	28.526051464802205	-14.559553809112767	13.966497655689437	-605.0000721216288	
1.739173083202512E12	128.0	128.0	28.544153993624928	-14.74454578692267	13.799608206702258	-605.0000721216288	
1.7391730832044653E12	128.0	128.0	28.53535515491428	-15.030868653162559	13.504486501751723	-605.0000721216288	
1.7391730832064185E12	128.0	128.0	28.52958542461222	-15.30673388322996	13.222851541382258	-605.0000721216288	
1.7391730832083718E12	128.0	128.0	28.63077206978465	-15.625583604047728	13.005188465736923	-605.0000721216288	
1.7391730832103252E12	128.0	128.0	28.60199553990311	-15.913709511007013	12.688286028896098	-605.0000721216288	
1.7391730832122786E12	128.0	128.0	28.5531691972219	-15.774731132356065	12.778438064865837	-605.0000721216288	
1.739173083214232E12	128.0	128.0	28.478306946552628	-15.428475192603491	13.049831753949137	-605.0000721216288	
1.7391730832161853E12	128.0	128.0	28.514007152796648	-15.078036198381927	13.43597095441472	-605.0000721216288	
1.7391730832181387E12	128.0	128.0	28.50318890848028	-14.789405440021213	13.713783468459066	-605.0000721216288	
1.7391730832200918E12	128.0	128.0	28.60906345952314	-14.654610115839258	13.95445334368388	-605.0000721216288	
1.7391730832220452E12	128.0	128.0	28.627598718118517	-14.742165773173067	13.88543294494545	-605.0000721216288	
1.7391730832239985E12	128.0	128.0	28.5963700528586	-14.974541661088665	13.621828391769935	-605.0000721216288	
1.739173083225952E12	128.0	128.0	28.614977433082753	-15.30651751834363	13.308459914739123	-605.0000721216288	
1.7391730832279053E12	128.0	128.0	28.69452758962245	-15.580796072577963	13.113731517044487	-605.0000721216288	
1.7391730832298586E12	128.0	128.0	28.722510781587456	-15.981359598798704	12.741151182788752	-605.0000721216288	
1.739173083231812E12	128.0	128.0	28.632935718647925	-16.006674290499006	12.626261428148918	-605.0000721216288	
1.7391730832337654E12	128.0	128.0	28.596802782631254	-15.729510871113645	12.86729191151761	-605.0000721216288	
1.7391730832357185E12	128.0	128.0	28.601634931759232	-15.311133302585281	13.290501629173951	-605.0000721216288	
1.7391730832376719E12	128.0	128.0	28.5758153886575	-15.03598928880564	13.53982609985186	-605.0000721216288	
1.7391730832396252E12	128.0	128.0	28.665318329968255	-14.738631813363053	13.926686516605201	-605.0000721216288	
1.7391730832415786E12	128.0	128.0	28.67757900686014	-14.812484361229464	13.865094645630675	-605.0000721216288	
1.739173083243532E12	128.0	128.0	28.66387589739274	-15.067217954065557	13.596657943327182	-605.0000721216288	
1.7391730832454854E12	128.0	128.0	28.68356510204853	-15.393856810791112	13.289708291257417	-605.0000721216288	
1.7391730832474387E12	128.0	128.0	28.74869093283307	-15.66193290495073	13.086758027882341	-605.0000721216288	
1.7391730832493918E12	128.0	128.0	28.78006384135054	-16.037975077387703	12.742088763962837	-605.0000721216288	
1.7391730832513452E12	128.0	128.0	28.72229441670113	-16.05715943064206	12.66513498605907	-605.0000721216288	
1.7391730832532986E12	128.0	128.0	28.64844186883472	-15.79074213394429	12.85769973489043	-605.0000721216288	
1.739173083255252E12	128.0	128.0	28.668924411407044	-15.376836106400026	13.292088305007018	-605.0000721216288	
1.7391730832572053E12	128.0	128.0	28.69214757587285	-15.232881335363547	13.4592662405093	-605.0000721216288	
1.7391730832591587E12	128.0	128.0	28.689479075608144	-14.912517060341484	13.77696201526666	-605.0000721216288	
1.739173083261112E12	128.0	128.0	28.73029991749524	-14.770148965138073	13.960150952357168	-605.0000721216288	
1.7391730832630654E12	128.0	128.0	28.769029232147844	-14.986153243321569	13.782875988826275	-605.0000721216288	
1.7391730832650186E12	128.0	128.0	28.75763401480127	-15.283005867362725	13.474628147438544	-605.0000721216288	
1.739173083266972E12	128.0	128.0	28.76087948809618	-15.579209396744897	13.181670091351283	-605.0000721216288	
1.7391730832689253E12	128.0	128.0	28.84908424008897	-15.911978591916395	12.937105648172576	-605.0000721216288	
1.7391730832708787E12	128.0	128.0	28.82405803490377	-16.15005208850528	12.674005946398491	-605.0000721216288	
1.739173083272832E12	128.0	128.0	28.744724243250403	-15.98402809906341	12.760696144186992	-605.0000721216288	
1.7391730832747854E12	128.0	128.0	28.71147617238476	-15.6298387801455	13.08163739223926	-605.0000721216288	
1.7391730832767388E12	128.0	128.0	28.74320968904611	-15.264470608767347	13.478739080278764	-605.0000721216288	
1.739173083278692E12	128.0	128.0	28.7491957842345	-14.960189456962285	13.789006327272217	-605.0000721216288	
1.7391730832806453E12	128.0	128.0	28.813672520360058	-14.865421636750895	13.948250883609163	-605.0000721216288	
1.7391730832825986E12	128.0	128.0	28.83249626547054	-15.071977981564759	13.76051828390578	-605.0000721216288	
1.739173083284552E12	128.0	128.0	28.84309814490058	-15.380009458066162	13.463088686834418	-605.0000721216288	
1.7391730832865054E12	128.0	128.0	28.85903702486003	-15.642099457037386	13.216937567822644	-605.0000721216288	
1.7391730832884587E12	128.0	128.0	28.976955887908446	-15.998596668076118	12.978359219832328	-605.0000721216288	
1.739173083290412E12	128.0	128.0	28.888246284514224	-16.229602245044976	12.658644039469248	-605.0000721216288	
1.7391730832923655E12	128.0	128.0	28.846271496566715	-16.062424309542692	12.783847187024021	-605.0000721216288	
1.7391730832943186E12	128.0	128.0	28.768812867261516	-15.691647016006355	13.077165851255161	-605.0000721216288	
1.739173083296272E12	128.0	128.0	28.798959708089797	-15.48335975210187	13.315599955987926	-605.0000721216288	
1.7391730832982253E12	128.0	128.0	28.778909895290127	-15.191267155559919	13.587642739730208	-605.0000721216288	
1.7391730833001787E12	128.0	128.0	28.876274094137443	-14.896433937124485	13.979840157012958	-605.0000721216288	
1.739173083302132E12	128.0	128.0	28.901228177693866	-15.041759019107703	13.859469158586164	-605.0000721216288	
1.7391730833040854E12	128.0	128.0	28.897838461141404	-15.285385881112324	13.61245258002908	-605.0000721216288	
1.7391730833060388E12	128.0	128.0	28.878654107887044	-15.602793169354578	13.275860938532466	-605.0000721216288	
1.739173083307992E12	128.0	128.0	28.97017645480352	-15.867551668590506	13.102624786213015	-605.0000721216288	
1.7391730833099453E12	128.0	128.0	28.987125037565836	-16.25289753113956	12.734227506426276	-605.0000721216288	
1.7391730833118987E12	128.0	128.0	28.90699790799593	-16.217630054668195	12.689367853327735	-605.0000721216288	
1.739173083313852E12	128.0	128.0	28.87836562137194	-15.940971486684262	12.937394134687679	-605.0000721216288	
1.7391730833158054E12	128.0	128.0	28.89091478477893	-15.558366246028692	13.332548538750236	-605.0000721216288	
1.7391730833177588E12	128.0	128.0	28.833578089902176	-15.283654962021705	13.54992312788047	-605.0000721216288	
1.7391730833197122E12	128.0	128.0	28.965200062417992	-14.942880266056092	14.0223197963619	-605.0000721216288	
1.7391730833216655E12	128.0	128.0	28.972123738780468	-15.069381602928829	13.90274213585164	-605.0000721216288	
1.7391730833236187E12	128.0	128.0	28.968373414084127	-15.33168796678638	13.636685447297747	-605.0000721216288	
1.739173083325572E12	128.0	128.0	28.979335901658047	-15.651331025520685	13.328004876137362	-605.0000721216288	
1.7391730833275254E12	128.0	128.0	29.04222596195054	-15.923950782293177	13.118275179657362	-605.0000721216288	
1.7391730833294788E12	128.0	128.0	29.066314585961653	-16.3114602937055	12.754854292256153	-605.0000721216288	
1.7391730833314321E12	128.0	128.0	28.985033510331338	-16.26472547825879	12.720308032072548	-605.0000721216288	
1.7391730833333855E12	128.0	128.0	28.959286088858377	-16.171111604107807	12.788174484750568	-605.0000721216288	
1.7391730833353389E12	128.0	128.0	28.919619193031693	-15.803002810836174	13.116616382195518	-605.0000721216288	
1.739173083337292E12	128.0	128.0	28.95943033211593	-15.474200305247344	13.485230026868585	-605.0000721216288	
1.7391730833392454E12	128.0	128.0	28.9839516858997	-15.151888746248337	13.832062939651363	-605.0000721216288	
1.7391730833411987E12	128.0	128.0	29.027873757824157	-15.054236060885916	13.97363769693824	-605.0000721216288	
1.739173083343152E12	128.0	128.0	29.054126030698544	-15.267427595547153	13.786698435151392	-605.0000721216288	
1.7391730833451055E12	128.0	128.0	29.035735015360718	-15.580651829320413	13.455083186040305	-605.0000721216288	
1.7391730833470588E12	128.0	128.0	29.058597571682643	-15.852838856320247	13.205758715362396	-605.0000721216288	
1.7391730833490122E12	128.0	128.0	29.140960471744595	-16.21755793303942	12.923402538705176	-605.0000721216288	
1.7391730833509656E12	128.0	128.0	29.078286776338434	-16.423897912966957	12.654388863371477	-605.0000721216288	
1.7391730833529187E12	128.0	128.0	29.01719975676534	-16.254339963715076	12.762859793050266	-605.0000721216288	
1.739173083354872E12	128.0	128.0	28.98741352408094	-15.871878966317057	13.115534557763882	-605.0000721216288	
1.7391730833568254E12	128.0	128.0	29.03263378532336	-15.50701564634033	13.52561813898303	-605.0000721216288	
1.7391730833587788E12	128.0	128.0	29.06977642414289	-15.202590251277718	13.867186172865173	-605.0000721216288	
1.7391730833607322E12	128.0	128.0	29.111967576976728	-15.169053693896974	13.942913883079754	-605.0000721216288	
1.7391730833626855E12	128.0	128.0	29.109659684855902	-15.390611337496203	13.7190483473597	-605.0000721216288	
1.739173083364639E12	128.0	128.0	29.09480262932809	-15.705854976875184	13.388947652452906	-605.0000721216288	
1.7391730833665923E12	128.0	128.0	29.140960471744595	-15.97955655807931	13.161403913665286	-605.0000721216288	
1.7391730833685454E12	128.0	128.0	29.214236046580798	-16.34521321597257	12.869022830608229	-605.0000721216288	
1.7391730833704988E12	128.0	128.0	29.206446910673012	-16.543114965333338	12.663331945339674	-605.0000721216288	
1.7391730833724521E12	128.0	128.0	29.135984079359066	-16.457650835234027	12.678333244125039	-605.0000721216288	
1.7391730833744055E12	128.0	128.0	29.1072796711063	-16.178179523727838	12.929100147378463	-605.0000721216288	
1.739173083376359E12	128.0	128.0	29.12343491595208	-15.751291603003931	13.372143312948147	-605.0000721216288	
1.7391730833783123E12	128.0	128.0	29.0867250069052	-15.45833354691667	13.628391459988531	-605.0000721216288	
1.7391730833802656E12	128.0	128.0	29.187911652077634	-15.191483520446242	13.996428131631392	-605.0000721216288	
1.7391730833822188E12	128.0	128.0	29.20904328930894	-15.359094185721181	13.84994910358776	-605.0000721216288	
1.739173083384172E12	128.0	128.0	29.169232150224705	-15.62846846919876	13.540763681025945	-605.0000721216288	
1.7391730833861255E12	128.0	128.0	29.208249951392407	-15.945370906039583	13.262879045352824	-605.0000721216288	
1.7391730833880789E12	128.0	128.0	29.289026175621295	-16.226717379893948	13.062308795727349	-605.0000721216288	
1.7391730833900322E12	128.0	128.0	29.279289755736563	-16.581267306955734	12.69802244878083	-605.0000721216288	
1.7391730833919856E12	128.0	128.0	29.21524574938366	-16.495658933598868	12.71958681578479	-605.0000721216288	
1.739173083393939E12	128.0	128.0	29.151562351174636	-16.217125203266765	12.934437147907872	-605.0000721216288	
1.7391730833958923E12	128.0	128.0	29.190435909084787	-15.799685215912486	13.3907506931723	-605.0000721216288	
1.7391730833978455E12	128.0	128.0	29.157187838219148	-15.495476185736202	13.661711652482946	-605.0000721216288	
1.7391730833997988E12	128.0	128.0	29.24575319835582	-15.216798212146548	14.028954986209273	-605.0000721216288	
1.7391730834017522E12	128.0	128.0	29.278280052933702	-15.378422782233095	13.899857270700608	-605.0000721216288	
1.7391730834037056E12	128.0	128.0	29.268687876306522	-15.667558391995241	13.601129484311281	-605.0000721216288	
1.739173083405659E12	128.0	128.0	29.253542334263607	-15.980710504139724	13.272831830123883	-605.0000721216288	
1.7391730834076123E12	128.0	128.0	29.373769089432848	-16.294655954200742	13.079113135232108	-605.0000721216288	
1.7391730834095657E12	128.0	128.0	29.378601238560826	-16.52097362529917	12.857627613261654	-605.0000721216288	
1.7391730834115188E12	128.0	128.0	29.301863825543386	-16.6558410711099	12.646022754433485	-605.0000721216288	
1.7391730834134722E12	128.0	128.0	29.249575644680938	-16.438466481979667	12.81110916270127	-605.0000721216288	
1.7391730834154255E12	128.0	128.0	29.233708886350264	-16.016482832012517	13.217226054337747	-605.0000721216288	
1.739173083417379E12	128.0	128.0	29.25383082077871	-15.658038336996837	13.595792483781873	-605.0000721216288	
1.7391730834193323E12	128.0	128.0	29.28159764785739	-15.32779339883249	13.953804249024898	-605.0000721216288	
1.7391730834212856E12	128.0	128.0	29.344343464892326	-15.33514980496762	14.009193659924707	-605.0000721216288	
1.739173083423239E12	128.0	128.0	29.326385179327154	-15.575963923449985	13.75042125587717	-605.0000721216288	
1.7391730834251924E12	128.0	128.0	29.347444694929685	-15.8964724417296	13.450972253200085	-605.0000721216288	
1.7391730834271455E12	128.0	128.0	29.343189518831913	-16.163033981684922	13.180155537146991	-605.0000721216288	
1.7391730834290989E12	128.0	128.0	29.424182107947125	-16.542177384159253	12.882004723787873	-605.0000721216288	
1.7391730834310522E12	128.0	128.0	29.35660414178421	-16.682814560272046	12.673789581512164	-605.0000721216288	
1.7391730834330056E12	128.0	128.0	29.318884529934472	-16.479792175268194	12.839092354666276	-605.0000721216288	
1.739173083434959E12	128.0	128.0	29.29457954103703	-16.067256458670673	13.227323082366357	-605.0000721216288	
1.7391730834369124E12	128.0	128.0	29.323428192547347	-15.738381831453067	13.58504636109428	-605.0000721216288	
1.7391730834388657E12	128.0	128.0	29.376726076212655	-15.422921827187757	13.953804249024898	-605.0000721216288	
1.7391730834408188E12	128.0	128.0	29.401391673253976	-15.404819298365032	13.996572374888943	-605.0000721216288	
1.7391730834427722E12	128.0	128.0	29.39396314549007	-15.62161691446506	13.77234623102501	-605.0000721216288	
1.7391730834447256E12	128.0	128.0	29.413435985259532	-15.92885505304993	13.484580932209603	-605.0000721216288	
1.739173083446679E12	128.0	128.0	29.399732875792132	-16.09415782620404	13.305575049588091	-605.0000721216288	
1.7391730834486323E12	128.0	128.0	29.495798885321488	-16.426710656489213	13.069088228832273	-605.0000721216288	
1.7391730834505857E12	128.0	128.0	29.506472886380305	-16.7925836792688	12.713889207111503	-605.0000721216288	
1.739173083452539E12	128.0	128.0	29.397929835072738	-16.64617677285394	12.751753062218794	-605.0000721216288	
1.7391730834544924E12	128.0	128.0	29.33879009947659	-16.30821482041059	13.030575279066001	-605.0000721216288	
1.7391730834564456E12	128.0	128.0	29.37629334644	-15.879091129194633	13.497202217245368	-605.0000721216288	
1.739173083458399E12	128.0	128.0	29.359633250192793	-15.606759858937247	13.752873391255546	-605.0000721216288	
1.7391730834603523E12	128.0	128.0	29.44913619150355	-15.379937336437385	14.069198855066164	-605.0000721216288	
1.7391730834623057E12	128.0	128.0	29.449568921276203	-15.57668513973774	13.872883781538462	-605.0000721216288	
1.739173083464259E12	128.0	128.0	29.468176301500357	-15.861132843629461	13.607043457870896	-605.0000721216288	
1.7391730834662124E12	128.0	128.0	29.4722151127118	-16.18820443012767	13.28401068258413	-605.0000721216288	
1.7391730834681658E12	128.0	128.0	29.559698648416838	-16.482172189017795	13.07752645939904	-605.0000721216288	
1.739173083470119E12	128.0	128.0	29.56907446015769	-16.812921978583574	12.756152481574118	-605.0000721216288	
1.7391730834720723E12	128.0	128.0	29.49630373672292	-16.677621803000193	12.818681933722727	-605.0000721216288	
1.7391730834740256E12	128.0	128.0	29.41314749874443	-16.347376864835844	13.065770633908587	-605.0000721216288	
1.739173083475979E12	128.0	128.0	29.455482894835818	-15.964411016036394	13.491071878799424	-605.0000721216288	
1.7391730834779324E12	128.0	128.0	29.423316648401816	-15.685156069416532	13.738160578985283	-605.0000721216288	
1.7391730834798857E12	128.0	128.0	29.54455310637392	-15.449390464948474	14.095162641425448	-605.0000721216288	
1.739173083481839E12	128.0	128.0	29.54181248448044	-15.659192283057248	13.882620201423194	-605.0000721216288	
1.7391730834837925E12	128.0	128.0	29.531499091565504	-15.805887675987208	13.725611415578296	-605.0000721216288	
1.7391730834857456E12	128.0	128.0	29.543687646828612	-16.102163326998156	13.441524319830457	-605.0000721216288	
1.739173083487699E12	128.0	128.0	29.550971931334967	-16.369806691385115	13.181165239949852	-605.0000721216288	
1.7391730834896523E12	128.0	128.0	29.641845183592462	-16.76171562215276	12.880129561439702	-605.0000721216288	
1.7391730834916057E12	128.0	128.0	29.526017847778544	-16.837443332367343	12.6885745154112	-605.0000721216288	
1.739173083493559E12	128.0	128.0	29.521834793309548	-16.617616607858732	12.904218185450816	-605.0000721216288	
1.7391730834955125E12	128.0	128.0	29.477840599756313	-16.219649460273914	13.258191139482397	-605.0000721216288	
1.7391730834974658E12	128.0	128.0	29.505751670092547	-15.876206264043603	13.629545406048944	-605.0000721216288	
1.7391730834994192E12	128.0	128.0	29.58313817776897	-15.52172845861059	14.061409719158378	-605.0000721216288	
1.7391730835013723E12	128.0	128.0	29.622660830338102	-15.570410558034249	14.052250272303853	-605.0000721216288	
1.7391730835033257E12	128.0	128.0	29.60816438295417	-15.78800151205081	13.820162870903358	-605.0000721216288	
1.739173083505279E12	128.0	128.0	29.59374005719901	-16.136565343924207	13.457174713274803	-605.0000721216288	
1.7391730835072324E12	128.0	128.0	29.64408095408451	-16.4255567104288	13.218524243655711	-605.0000721216288	
1.7391730835091858E12	128.0	128.0	29.705889189945363	-16.84415064384349	12.861738546101874	-605.0000721216288	
1.7391730835111392E12	128.0	128.0	29.638888196812655	-16.910935272089873	12.727952924722782	-605.0000721216288	
1.7391730835130925E12	128.0	128.0	29.567487784324623	-16.69601281833802	12.871474965986605	-605.0000721216288	
1.7391730835150457E12	128.0	128.0	29.574772068830978	-16.273524316969436	13.301247751861544	-605.0000721216288	
1.739173083516999E12	128.0	128.0	29.56344897311318	-15.929648390966463	13.633800582146716	-605.0000721216288	
1.7391730835189524E12	128.0	128.0	29.640042142873067	-15.556779570195625	14.083262572677443	-605.0000721216288	
1.7391730835209058E12	128.0	128.0	29.653961617226795	-15.6185156844277	14.035445932799094	-605.0000721216288	
1.7391730835228591E12	128.0	128.0	29.673434456996258	-15.748334616224124	13.925099840772134	-605.0000721216288	
1.7391730835248125E12	128.0	128.0	29.624103262913618	-16.066102512610257	13.558000750303359	-605.0000721216288	
1.7391730835267659E12	128.0	128.0	29.656341630976396	-16.420363953156944	13.235977677819452	-605.0000721216288	
1.7391730835287192E12	128.0	128.0	29.750171870013702	-16.758975000259284	12.991196869754418	-605.0000721216288	
1.7391730835306724E12	128.0	128.0	29.714760150284786	-17.06239069251903	12.652369457765754	-605.0000721216288	
1.7391730835326257E12	128.0	128.0	29.65749557703681	-16.93322085538159	12.724274721655217	-605.0000721216288	
1.739173083534579E12	128.0	128.0	29.619198992156864	-16.56893450843507	13.050264483721792	-605.0000721216288	
1.7391730835365325E12	128.0	128.0	29.64804764366718	-16.157841224413065	13.490206419254115	-605.0000721216288	
1.7391730835384858E12	128.0	128.0	29.64566762991758	-15.849809747911662	13.795857882005917	-605.0000721216288	
1.7391730835404392E12	128.0	128.0	29.7138225691107	-15.604740453331525	14.109082115779175	-605.0000721216288	
1.7391730835423926E12	128.0	128.0	29.73444935494058	-15.80603191924476	13.92841743569582	-605.0000721216288	
1.7391730835443457E12	128.0	128.0	29.727237192062997	-16.113053692943296	13.614183499119699	-605.0000721216288	
1.739173083546299E12	128.0	128.0	29.70884617672517	-16.43363433285169	13.275211843873484	-605.0000721216288	
1.7391730835482524E12	128.0	128.0	29.811619497730675	-16.77787086699854	13.033748630732136	-605.0000721216288	
1.7391730835502058E12	128.0	128.0	29.763586492966	-17.090157519597714	12.673428973368285	-605.0000721216288	
1.7391730835521592E12	128.0	128.0	29.718366231723575	-16.955794925188414	12.762571306535163	-605.0000721216288	
1.7391730835541125E12	128.0	128.0	29.693412148167152	-16.605211687709293	13.088200460457857	-605.0000721216288	
1.739173083556066E12	128.0	128.0	29.73819967963692	-16.189069889672986	13.549129789963937	-605.0000721216288	
1.7391730835580193E12	128.0	128.0	29.701057040817386	-15.842669706662859	13.858387334154527	-605.0000721216288	
1.7391730835599724E12	128.0	128.0	29.774981710312574	-15.702321017065172	14.072660693247402	-605.0000721216288	
1.7391730835619258E12	128.0	128.0	29.78003022432688	-15.770908686030948	14.00912153829593	-605.0000721216288	
1.7391730835638792E12	128.0	128.0	29.775775048229107	-16.0242719679203	13.751503080308806	-605.0000721216288	
1.7391730835658325E12	128.0	128.0	29.784862373454857	-16.37932674638352	13.405535627071338	-605.0000721216288	
1.739173083567786E12	128.0	128.0	29.848473650035103	-16.702864373071716	13.145609276963388	-605.0000721216288	
1.7391730835697393E12	128.0	128.0	29.88705872143015	-17.131915942658893	12.755142778771257	-605.0000721216288	
1.7391730835716926E12	128.0	128.0	29.80743644326168	-17.16047610765411	12.64696033560757	-605.0000721216288	
1.7391730835736458E12	128.0	128.0	29.767985912321322	-16.891318189062858	12.876667723258464	-605.0000721216288	
1.739173083575599E12	128.0	128.0	29.78464600856853	-16.429234913496366	13.355411095072162	-605.0000721216288	
1.7391730835775525E12	128.0	128.0	29.747863977892877	-16.099062096960797	13.64880188093208	-605.0000721216288	
1.7391730835795059E12	128.0	128.0	29.81955287689601	-15.771413537432379	14.048139339463633	-605.0000721216288	
1.7391730835814592E12	128.0	128.0	29.85229609636022	-15.85947404616762	13.9928220501926	-605.0000721216288	
1.7391730835834126E12	128.0	128.0	29.8595082592378	-16.10165847559672	13.757849783641076	-605.0000721216288	
1.739173083585366E12	128.0	128.0	29.838809351779148	-16.439476184782528	13.39933316699662	-605.0000721216288	
1.7391730835873193E12	128.0	128.0	29.933288685475432	-16.74527189079188	13.188016794683552	-605.0000721216288	
1.7391730835892725E12	128.0	128.0	29.956006998539806	-17.161125202313087	12.794881796226717	-605.0000721216288	
1.7391730835912258E12	128.0	128.0	29.852728826132875	-17.192786597345663	12.659942228787212	-605.0000721216288	
1.7391730835931792E12	128.0	128.0	29.821500160872958	-16.91937350265664	12.902126658216318	-605.0000721216288	
1.7391730835951326E12	128.0	128.0	29.857560975260853	-16.498399555492348	13.359161419768503	-605.0000721216288	
1.739173083597086E12	128.0	128.0	29.859075529465144	-16.3364864988907	13.522589030574446	-605.0000721216288	
1.7391730835990393E12	128.0	128.0	29.854603988481045	-15.990951775425886	13.86365221305516	-605.0000721216288	
1.7391730836009927E12	128.0	128.0	29.911796440100247	-15.799036121253506	14.11276031884674	-605.0000721216288	
1.7391730836029458E12	128.0	128.0	29.901338803927757	-16.01619434549741	13.885144458430347	-605.0000721216288	
1.7391730836048992E12	128.0	128.0	29.930115333809297	-16.322350659650645	13.607764674158654	-605.0000721216288	
1.7391730836068525E12	128.0	128.0	29.934442631535845	-16.644373732134547	13.290068899401296	-605.0000721216288	
1.739173083608806E12	128.0	128.0	30.01579582879494	-17.01998317479887	12.995812653996069	-605.0000721216288	
1.7391730836107593E12	128.0	128.0	29.96790706728781	-17.30522421660712	12.662682850680692	-605.0000721216288	
1.7391730836127126E12	128.0	128.0	29.918143143432516	-17.137325064817077	12.780818078615438	-605.0000721216288	
1.739173083614666E12	128.0	128.0	29.85676763734432	-16.769793244575652	13.086974392768669	-605.0000721216288	
1.7391730836166194E12	128.0	128.0	29.90948854797942	-16.35480539259975	13.554683155379672	-605.0000721216288	
1.7391730836185725E12	128.0	128.0	29.923768630477028	-16.028815630533174	13.894952999943854	-605.0000721216288	
1.739173083620526E12	128.0	128.0	29.99199569129893	-15.90455006415249	14.087445627146439	-605.0000721216288	
1.7391730836224792E12	128.0	128.0	29.97223436501436	-16.112404598284314	13.859829766730043	-605.0000721216288	
1.7391730836244326E12	128.0	128.0	29.98103320372501	-16.401035356645032	13.579997847079975	-605.0000721216288	
1.739173083626386E12	128.0	128.0	29.991562961526274	-16.73503061950572	13.256532342020554	-605.0000721216288	
1.7391730836283394E12	128.0	128.0	30.093326579728913	-17.119655265767012	12.973671313961901	-605.0000721216288	
1.7391730836302927E12	128.0	128.0	30.02502739727824	-17.366311236180216	12.658716161098024	-605.0000721216288	
1.7391730836322458E12	128.0	128.0	29.984711406792574	-17.184420488407675	12.800290918384901	-605.0000721216288	
1.7391730836341992E12	128.0	128.0	29.956511849941236	-17.043639069037326	12.91287278090391	-605.0000721216288	
1.7391730836361526E12	128.0	128.0	29.960983390925335	-16.578310320175923	13.382673070749412	-605.0000721216288	
1.739173083638106E12	128.0	128.0	29.92816804983235	-16.266095789205526	13.662072260626825	-605.0000721216288	
1.7391730836400593E12	128.0	128.0	30.042552953070757	-15.954458231265336	14.08809472180542	-605.0000721216288	
1.7391730836420127E12	128.0	128.0	30.044355993790152	-16.08153654116828	13.962819452621872	-605.0000721216288	
1.739173083643966E12	128.0	128.0	30.02589285682355	-16.34593443226033	13.679958424563221	-605.0000721216288	
1.7391730836459194E12	128.0	128.0	30.056833035568363	-16.654038030390506	13.402795005177857	-605.0000721216288	
1.7391730836478726E12	128.0	128.0	30.129964367147014	-16.96033858780129	13.169625779345726	-605.0000721216288	
1.739173083649826E12	128.0	128.0	30.152899045097715	-17.39328472534236	12.759614319755356	-605.0000721216288	
1.7391730836517793E12	128.0	128.0	30.070031293634333	-17.343232314971964	12.72679897866237	-605.0000721216288	
1.7391730836537327E12	128.0	128.0	30.01904130208985	-17.075588950585004	12.943452351504845	-605.0000721216288	
1.739173083655686E12	128.0	128.0	30.03360987110256	-16.638604001832487	13.395005869270072	-605.0000721216288	
1.7391730836576394E12	128.0	128.0	30.00122725978223	-16.321485200105336	13.679742059676894	-605.0000721216288	
1.7391730836595928E12	128.0	128.0	30.099312674917304	-15.99174511334242	14.107567561574884	-605.0000721216288	
1.7391730836615461E12	128.0	128.0	30.126718893852104	-16.09841300230181	14.028305891550291	-605.0000721216288	
1.7391730836634993E12	128.0	128.0	30.105082405219367	-16.368292137180823	13.736790268038543	-605.0000721216288	
1.7391730836654526E12	128.0	128.0	30.105082405219367	-16.70978804943419	13.395294355785175	-605.0000721216288	
1.739173083667406E12	128.0	128.0	30.192854427439503	-17.02697897279012	13.165875454649385	-605.0000721216288	
1.7391730836693594E12	128.0	128.0	30.20612480713425	-17.43049948579067	12.77562532134358	-605.0000721216288	
1.7391730836713127E12	128.0	128.0	30.105298770105694	-17.382466481025993	12.722832289079701	-605.0000721216288	
1.739173083673266E12	128.0	128.0	30.102846634727317	-17.286328349867865	12.816518284859454	-605.0000721216288	
1.7391730836752195E12	128.0	128.0	30.049116021289354	-16.907761920423738	13.141354100865616	-605.0000721216288	
1.7391730836771726E12	128.0	128.0	30.099673283061183	-16.519026341322224	13.580646941738957	-605.0000721216288	
1.739173083679126E12	128.0	128.0	30.097581755826685	-16.163827319601456	13.933754436225229	-605.0000721216288	
1.7391730836810793E12	128.0	128.0	30.150663274605666	-16.081392297910725	14.06927097669494	-605.0000721216288	
1.7391730836830327E12	128.0	128.0	30.17900707471455	-16.320763983817578	13.858243090896975	-605.0000721216288	
1.739173083684986E12	128.0	128.0	30.179944655888637	-16.645455556566183	13.534489099322451	-605.0000721216288	
1.7391730836869395E12	128.0	128.0	30.197975063082584	-16.96682953439111	13.231145528691474	-605.0000721216288	
1.7391730836888928E12	128.0	128.0	30.284232531098432	-17.356719059553036	12.927513471545396	-605.0000721216288	
1.7391730836908462E12	128.0	128.0	30.25581660936077	-17.54791349743766	12.707903111923113	-605.0000721216288	
1.7391730836927993E12	128.0	128.0	30.178862831457	-17.39573686072074	12.783125970736263	-605.0000721216288	
1.7391730836947527E12	128.0	128.0	30.14373959824319	-16.976998684048496	13.166740914194694	-605.0000721216288	
1.739173083696706E12	128.0	128.0	30.16941489808737	-16.579824874380215	13.589590023707155	-605.0000721216288	
1.7391730836986594E12	128.0	128.0	30.164510627330618	-16.234722880688057	13.92978774664256	-605.0000721216288	
1.7391730837006128E12	128.0	128.0	30.24745050042278	-16.16007699490512	14.087373505517663	-605.0000721216288	
1.7391730837025662E12	128.0	128.0	30.227833417395765	-16.407959033007508	13.819874384388255	-605.0000721216288	
1.7391730837045195E12	128.0	128.0	30.22516491713106	-16.733299700415103	13.491865216715958	-605.0000721216288	
1.7391730837064727E12	128.0	128.0	30.267572434851225	-17.04565847464305	13.221913960208173	-605.0000721216288	
1.739173083708426E12	128.0	128.0	30.361258430630976	-17.45141475813565	12.909843672495327	-605.0000721216288	
1.7391730837103794E12	128.0	128.0	30.329885522113507	-17.63799341177862	12.691892110334887	-605.0000721216288	
1.7391730837123328E12	128.0	128.0	30.254734784929134	-17.573372432395512	12.681362352533622	-605.0000721216288	
1.7391730837142861E12	128.0	128.0	30.227833417395765	-17.283227119830507	12.944606297565258	-605.0000721216288	
1.7391730837162395E12	128.0	128.0	30.227833417395765	-16.802464342411085	13.42536907498468	-605.0000721216288	
1.7391730837181929E12	128.0	128.0	30.19566717096176	-16.452890807734825	13.742776363226934	-605.0000721216288	
1.7391730837201462E12	128.0	128.0	30.303849614125447	-16.15950002187491	14.144349592250538	-605.0000721216288	
1.7391730837220994E12	128.0	128.0	30.314667858441815	-16.326317349233314	13.988350509208502	-605.0000721216288	
1.7391730837240527E12	128.0	128.0	30.292382275150096	-16.600740146725197	13.691642128424899	-605.0000721216288	
1.739173083726006E12	128.0	128.0	30.299378073141348	-16.942019694092238	13.357358379049108	-605.0000721216288	
1.7391730837279595E12	128.0	128.0	30.41051750308484	-17.273274335059444	13.137243168025396	-605.0000721216288	
1.7391730837299128E12	128.0	128.0	30.365585728357523	-17.629122451439198	12.736463276918325	-605.0000721216288	
