"sep=	"
Shimmer_6749_TimestampSync_Unix_CAL	Shimmer_6749_ECG_EMG_Status1_CAL	Shimmer_6749_ECG_EMG_Status2_CAL	Shimmer_6749_ECG_LA-RA_24BIT_CAL	Shimmer_6749_ECG_LL-LA_24BIT_CAL	Shimmer_6749_ECG_LL-RA_24BIT_CAL	Shimmer_6749_ECG_Vx-RL_24BIT_CAL	
ms	no_units	no_units	mV	mV	mV	mV	
1.73882105354408E12	128.0	128.0	32.758869857653366	-19.13141597883892	13.627453878814446	-605.0000721216288	
1.7388210535636091E12	128.0	128.0	32.89510761441083	-19.10754371971413	13.787563894696701	-605.0000721216288	
1.7388210535831382E12	128.0	128.0	32.95446371489331	-19.40057389743017	13.553889817463139	-605.0000721216288	
1.7388210536026672E12	128.0	128.0	33.10224093225491	-19.31063822634676	13.791602705908145	-605.0000721216288	
1.7388210536221963E12	128.0	128.0	33.192753576368524	-19.62544913595309	13.567304440415436	-605.0000721216288	
1.7388210536417253E12	128.0	128.0	33.34514657797177	-19.5244067340382	13.820739843933564	-605.0000721216288	
1.7388210536612542E12	128.0	128.0	33.41294090902101	-19.817725398269346	13.595215510751666	-605.0000721216288	
1.7388210536807832E12	128.0	128.0	33.54261559755988	-19.71870240196018	13.8239131955997	-605.0000721216288	
1.7388210537003123E12	128.0	128.0	33.600024414065416	-20.00415980865477	13.595864605410648	-605.0000721216288	
1.7388210537198413E12	128.0	128.0	33.736911265481865	-19.900304663217625	13.836606602264238	-605.0000721216288	
1.7388210537393704E12	128.0	128.0	33.82316873349771	-20.198383354947968	13.624785378549742	-605.0000721216288	
1.7388210537588994E12	128.0	128.0	33.838674883684504	-20.555096930873027	13.283577952811475	-605.0000721216288	
1.7388210537784285E12	128.0	128.0	34.049197918081035	-20.398809361315887	13.650388556765147	-605.0000721216288	
1.7388210537979575E12	128.0	128.0	34.059655554253524	-20.746796220159077	13.312859334094446	-605.0000721216288	
1.7388210538174866E12	128.0	128.0	34.24039235596566	-20.576228568104337	13.664163787861323	-605.0000721216288	
1.7388210538370154E12	128.0	128.0	34.26505795300698	-20.93921672573289	13.325841227274088	-605.0000721216288	
1.7388210538565444E12	128.0	128.0	34.442982011196854	-20.758840532164637	13.684141479032217	-605.0000721216288	
1.7388210538760735E12	128.0	128.0	34.47904282558475	-21.13279117736711	13.346251648217637	-605.0000721216288	
1.7388210538956025E12	128.0	128.0	34.52512854637248	-21.210466171558636	13.31466237481384	-605.0000721216288	
1.7388210539151316E12	128.0	128.0	34.687185846231685	-21.335957805628517	13.351228040603166	-605.0000721216288	
1.7388210539346606E12	128.0	128.0	34.723174538990804	-21.415147354024334	13.308027184966468	-605.0000721216288	
1.7388210539541897E12	128.0	128.0	34.87001417517831	-21.481066522725406	13.388947652452906	-605.0000721216288	
1.7388210539737188E12	128.0	128.0	34.90809439517193	-21.562131233469394	13.345963161702533	-605.0000721216288	
1.7388210539932476E12	128.0	128.0	35.04923642268615	-21.640094714176023	13.409141708510127	-605.0000721216288	
1.7388210540127766E12	128.0	128.0	35.086595426392016	-21.74596926521889	13.340626161173125	-605.0000721216288	
1.7388210540323057E12	128.0	128.0	35.24107995522976	-21.830784300659218	13.41029565457054	-605.0000721216288	
1.7388210540518347E12	128.0	128.0	35.253989726780624	-21.92151330965916	13.33247641712146	-605.0000721216288	
1.7388210540713638E12	128.0	128.0	35.36837463001903	-21.72671279033575	13.641661839683277	-605.0000721216288	
1.7388210540908928E12	128.0	128.0	35.45383876011834	-22.122372045799736	13.3314667143186	-605.0000721216288	
1.7388210541104219E12	128.0	128.0	35.55653995949506	-21.915599336099543	13.640940623395519	-605.0000721216288	
1.738821054129951E12	128.0	128.0	35.63623435929232	-22.304046428685957	13.332187930606358	-605.0000721216288	
1.73882105414948E12	128.0	128.0	35.72097727310387	-22.108668936332343	13.612308336771529	-605.0000721216288	
1.7388210541690088E12	128.0	128.0	35.80420563271113	-22.459829146841663	13.344376485869466	-605.0000721216288	
1.7388210541885378E12	128.0	128.0	35.89796375011966	-22.254210383201883	13.643753366917775	-605.0000721216288	
1.738821054208067E12	128.0	128.0	36.01703655922849	-22.076646933155885	13.940389626072601	-605.0000721216288	
1.738821054227596E12	128.0	128.0	36.06016529323641	-22.434514455141358	13.625650838095051	-605.0000721216288	
1.738821054247125E12	128.0	128.0	36.196691536508986	-22.252335220853716	13.94435631565527	-605.0000721216288	
1.738821054266654E12	128.0	128.0	36.23960390563058	-22.607317877688157	13.632286027942424	-605.0000721216288	
1.738821054286183E12	128.0	128.0	36.36033551220125	-22.43177383324788	13.928561678953372	-605.0000721216288	
1.7388210543057122E12	128.0	128.0	36.40901761162491	-22.786395881938443	13.622621729686468	-605.0000721216288	
1.7388210543252412E12	128.0	128.0	36.52917224516538	-22.597725701060973	13.931446544104404	-605.0000721216288	
1.73882105434477E12	128.0	128.0	36.624733403293305	-22.736199228310497	13.888534174982809	-605.0000721216288	
1.738821054364299E12	128.0	128.0	36.698585951159714	-22.763172717472642	13.935413233687072	-605.0000721216288	
1.7388210543838281E12	128.0	128.0	36.784410689402904	-22.859238727001994	13.92517196240091	-605.0000721216288	
1.7388210544033572E12	128.0	128.0	36.85508988560318	-22.909074772486065	13.946015113117113	-605.0000721216288	
1.7388210544228862E12	128.0	128.0	36.93882309661187	-23.010622025802377	13.928201070809493	-605.0000721216288	
1.7388210544424153E12	128.0	128.0	37.01541626637176	-23.057573206135416	13.957843060236343	-605.0000721216288	
1.7388210544619443E12	128.0	128.0	37.0936682335935	-23.166260500700538	13.92740773289296	-605.0000721216288	
1.7388210544814734E12	128.0	128.0	37.17624749854178	-23.220063235767277	13.9561842627745	-605.0000721216288	
1.7388210545010024E12	128.0	128.0	37.251470357354926	-23.299757635564525	13.9517127217904	-605.0000721216288	
1.7388210545205312E12	128.0	128.0	37.2813287116681	-23.658202130580204	13.623126581087899	-605.0000721216288	
1.7388210545400603E12	128.0	128.0	37.41785495494067	-23.45849734050004	13.959357614440634	-605.0000721216288	
1.7388210545595894E12	128.0	128.0	37.438049010997894	-23.81275878104672	13.625290229951172	-605.0000721216288	
1.7388210545791184E12	128.0	128.0	37.56260306389368	-23.576632568434782	13.9859704954589	-605.0000721216288	
1.7388210545986475E12	128.0	128.0	37.59303839123707	-23.930894008981472	13.662144382255601	-605.0000721216288	
1.7388210546181765E12	128.0	128.0	37.7255258232982	-23.738978354809092	13.986547468489107	-605.0000721216288	
1.7388210546377056E12	128.0	128.0	37.74074348696989	-24.093600403499654	13.647143083470237	-605.0000721216288	
1.7388210546572346E12	128.0	128.0	37.74059924371234	-24.308306492365183	13.432292751347156	-605.0000721216288	
1.7388210546767637E12	128.0	128.0	37.89118920459619	-24.21252896935093	13.678660235245257	-605.0000721216288	
1.7388210546962925E12	128.0	128.0	37.893136488573134	-24.455290371810243	13.437846116762891	-605.0000721216288	
1.7388210547158215E12	128.0	128.0	38.019349338930766	-24.329438129596486	13.68991120933428	-605.0000721216288	
1.7388210547353506E12	128.0	128.0	38.02858090741407	-24.588571141787902	13.440009765626165	-605.0000721216288	
1.7388210547548796E12	128.0	128.0	38.17628600314689	-24.478657779533602	13.69762822361329	-605.0000721216288	
1.7388210547744087E12	128.0	128.0	38.17354538125341	-24.717452492410246	13.456092888843166	-605.0000721216288	
1.7388210547939377E12	128.0	128.0	38.2182607910944	-24.608693076216355	13.609567714878049	-605.0000721216288	
1.7388210548134668E12	128.0	128.0	38.290166054983864	-24.829962233300478	13.460203821683386	-605.0000721216288	
1.7388210548329958E12	128.0	128.0	38.345483344254895	-24.756903023350603	13.588580320904294	-605.0000721216288	
1.738821054852525E12	128.0	128.0	38.43585174511096	-24.99353408736397	13.44231765774699	-605.0000721216288	
1.7388210548720537E12	128.0	128.0	38.478619870975	-24.873884305224934	13.60473556575007	-605.0000721216288	
1.7388210548915828E12	128.0	128.0	38.56595916342249	-25.08238793401575	13.483571229406742	-605.0000721216288	
1.7388210549111118E12	128.0	128.0	38.61752612799718	-25.01726210323121	13.600264024765972	-605.0000721216288	
1.7388210549306409E12	128.0	128.0	38.71005817771652	-25.21977963683363	13.49027854088289	-605.0000721216288	
1.73882105495017E12	128.0	128.0	38.749364465399324	-25.178381821916325	13.570982643483001	-605.0000721216288	
1.738821054969699E12	128.0	128.0	38.84997413754155	-24.963243003278137	13.886731134263414	-605.0000721216288	
1.738821054989228E12	128.0	128.0	38.870096071969996	-25.32644752579302	13.543648546176977	-605.0000721216288	
1.738821055008757E12	128.0	128.0	38.97835063676246	-25.053250795990323	13.925099840772134	-605.0000721216288	
1.7388210550282861E12	128.0	128.0	38.99695801698661	-25.442563348122043	13.55439466886457	-605.0000721216288	
1.738821055047815E12	128.0	128.0	39.10261620314315	-25.18516125502125	13.9174549481219	-605.0000721216288	
1.738821055067344E12	128.0	128.0	39.13759519309941	-25.561203427458224	13.576391765641185	-605.0000721216288	
1.738821055086873E12	128.0	128.0	39.23553636497693	-25.303584969471096	13.931951395505834	-605.0000721216288	
1.738821055106402E12	128.0	128.0	39.34242061882265	-25.254470140274783	14.087950478547869	-605.0000721216288	
1.7388210551259312E12	128.0	128.0	39.375235959915635	-25.46405559349723	13.911180366418407	-605.0000721216288	
1.7388210551454602E12	128.0	128.0	39.48392325448075	-25.391789721463887	14.092133533016865	-605.0000721216288	
1.7388210551649893E12	128.0	128.0	39.50051122909918	-25.5800271725687	13.920484056530483	-605.0000721216288	
1.7388210551845183E12	128.0	128.0	39.59643299537099	-25.4972315427341	14.099201452636892	-605.0000721216288	
1.7388210552040474E12	128.0	128.0	39.62008888960945	-25.703932130805512	13.916156758803936	-605.0000721216288	
1.7388210552235762E12	128.0	128.0	39.713847007017975	-25.593009065748344	14.120837941269631	-605.0000721216288	
1.7388210552431052E12	128.0	128.0	39.736637441711125	-25.8398092794191	13.896828162292024	-605.0000721216288	
1.7388210552626343E12	128.0	128.0	39.84308896578419	-25.723044362431093	14.120044603353097	-605.0000721216288	
1.7388210552821633E12	128.0	128.0	39.878789172028206	-25.978427049926168	13.900362122102038	-605.0000721216288	
1.7388210553016924E12	128.0	128.0	39.944419854214175	-25.836852292639293	14.107567561574884	-605.0000721216288	
1.7388210553212214E12	128.0	128.0	40.01423359086914	-26.094975602027844	13.919257988841295	-605.0000721216288	
1.7388210553407505E12	128.0	128.0	40.061689622603616	-25.960468764361003	14.101220858242614	-605.0000721216288	
1.7388210553602795E12	128.0	128.0	40.116718425359544	-26.19060888178455	13.926109543574995	-605.0000721216288	
1.7388210553798086E12	128.0	128.0	40.181627891257754	-26.068218477752033	14.113409413505723	-605.0000721216288	
1.7388210553993374E12	128.0	128.0	40.24213793780064	-26.295329486766995	13.946808451033647	-605.0000721216288	
1.7388210554188665E12	128.0	128.0	40.2288675581059	-26.629613236142788	13.59925432196311	-605.0000721216288	
1.7388210554383955E12	128.0	128.0	40.35493616520598	-26.41757564754196	13.937360517664018	-605.0000721216288	
1.7388210554579246E12	128.0	128.0	40.33394877123222	-26.74450299078262	13.589445780449603	-605.0000721216288	
1.7388210554774536E12	128.0	128.0	40.4686719737854	-26.505996764421077	13.96267520936432	-605.0000721216288	
1.7388210554969827E12	128.0	128.0	40.46297436511211	-26.843237500576677	13.619736864535435	-605.0000721216288	
1.7388210555165117E12	128.0	128.0	40.59315390505242	-26.60747189610862	13.985682008943797	-605.0000721216288	
1.7388210555360408E12	128.0	128.0	40.59279329690854	-26.96793579673002	13.624857500178518	-605.0000721216288	
1.7388210555555698E12	128.0	128.0	40.58760053963668	-27.008540273730794	13.57906026590589	-605.0000721216288	
1.7388210555750986E12	128.0	128.0	40.688642941551564	-27.037749533384986	13.650893408166578	-605.0000721216288	
1.7388210555946277E12	128.0	128.0	40.68676777920339	-27.12047304159082	13.566294737612575	-605.0000721216288	
1.7388210556141567E12	128.0	128.0	40.79184899232972	-27.120545163219592	13.671303829110126	-605.0000721216288	
1.7388210556336858E12	128.0	128.0	40.79408476282177	-27.21141841547709	13.582666347344679	-605.0000721216288	
1.7388210556532148E12	128.0	128.0	40.91034482840834	-27.231684593163084	13.678660235245257	-605.0000721216288	
1.738821055672744E12	128.0	128.0	40.90363751693219	-27.325803318715494	13.577834198216701	-605.0000721216288	
1.738821055692273E12	128.0	128.0	41.005689621649935	-27.314768709512794	13.690920912137141	-605.0000721216288	
1.738821055711802E12	128.0	128.0	40.99479925570479	-27.426629355744048	13.568169899960745	-605.0000721216288	
1.738821055731331E12	128.0	128.0	41.06345904629935	-27.207018996121768	13.85644005017758	-605.0000721216288	
1.7388210557508599E12	128.0	128.0	41.099159252543366	-27.52197414898565	13.577185103557719	-605.0000721216288	
1.738821055770389E12	128.0	128.0	41.16096748840422	-27.290680085501684	13.870287402902534	-605.0000721216288	
1.738821055789918E12	128.0	128.0	41.212245966463804	-27.64083059320815	13.571415373255656	-605.0000721216288	
1.738821055809447E12	128.0	128.0	41.277804527021	-27.42727845040303	13.850526076617966	-605.0000721216288	
1.738821055828976E12	128.0	128.0	41.30896107065214	-27.741872995123032	13.567088075529108	-605.0000721216288	
1.7388210558485051E12	128.0	128.0	41.35858075124988	-27.51685351334256	13.84172723790732	-605.0000721216288	
1.7388210558680342E12	128.0	128.0	41.464238937406414	-27.316643871860965	14.147595065545449	-605.0000721216288	
1.7388210558875632E12	128.0	128.0	41.49243849425775	-27.659293730174745	13.833144764083	-605.0000721216288	
1.7388210559070923E12	128.0	128.0	41.592110585225896	-27.416748692601768	14.175361892624128	-605.0000721216288	
1.738821055926621E12	128.0	128.0	41.58864874704466	-27.76487979470251	13.823768952342148	-605.0000721216288	
1.7388210559461501E12	128.0	128.0	41.657885510669416	-27.505169809480886	14.15271570118853	-605.0000721216288	
1.7388210559656792E12	128.0	128.0	41.64995213150408	-27.780746553033183	13.869205578470897	-605.0000721216288	
1.7388210559852083E12	128.0	128.0	41.74298903262485	-27.555005854964957	14.187983177659891	-605.0000721216288	
1.7388210560047373E12	128.0	128.0	41.74464783008669	-27.906743038504487	13.837904791582202	-605.0000721216288	
1.7388210560242664E12	128.0	128.0	41.834367136283774	-27.67162652869541	14.162740607588365	-605.0000721216288	
1.7388210560437954E12	128.0	128.0	41.89574264237197	-27.74425300887263	14.151489633499342	-605.0000721216288	
1.7388210560633245E12	128.0	128.0	41.91939853661043	-27.77165922780743	14.147739308803	-605.0000721216288	
1.7388210560828535E12	128.0	128.0	41.98207223201659	-27.838011126281156	14.144061105735435	-605.0000721216288	
1.7388210561023823E12	128.0	128.0	42.01221907284487	-27.853228789952848	14.158990282892024	-605.0000721216288	
1.7388210561219114E12	128.0	128.0	42.085422526052305	-27.913161863465536	14.172260662586769	-605.0000721216288	
1.7388210561414404E12	128.0	128.0	42.113838447789966	-27.971291896258823	14.142546551531144	-605.0000721216288	
1.7388210561609695E12	128.0	128.0	42.176367899938576	-27.995380520269936	14.18098737966864	-605.0000721216288	
1.7388210561804985E12	128.0	128.0	42.18848433357291	-28.33045760756226	13.858026726010648	-605.0000721216288	
1.7388210562000276E12	128.0	128.0	42.262697489583196	-28.095629584268284	14.167067905314912	-605.0000721216288	
1.7388210562195566E12	128.0	128.0	42.27856424791387	-28.42515330614487	13.853410941768997	-605.0000721216288	
1.7388210562390857E12	128.0	128.0	42.37138478414831	-28.19609501315296	14.175289770995352	-605.0000721216288	
1.7388210562586145E12	128.0	128.0	42.363812013126854	-28.495471894201266	13.868340118925586	-605.0000721216288	
1.7388210562781436E12	128.0	128.0	42.4548295086419	-28.263817222573426	14.191012286068474	-605.0000721216288	
1.7388210562976726E12	128.0	128.0	42.467234428791336	-28.58245057850487	13.884783850286468	-605.0000721216288	
1.7388210563172017E12	128.0	128.0	42.43477969584223	-28.832063535697884	13.602716160144348	-605.0000721216288	
1.7388210563367307E12	128.0	128.0	42.53618270590099	-28.651038247470645	13.885144458430347	-605.0000721216288	
1.7388210563562598E12	128.0	128.0	42.51735896079051	-28.901444542580194	13.615914418210318	-605.0000721216288	
1.7388210563757888E12	128.0	128.0	42.62705595815849	-28.712774361702728	13.914281596455766	-605.0000721216288	
1.7388210563953179E12	128.0	128.0	42.61277587566089	-28.965704913819426	13.647070961841461	-605.0000721216288	
1.738821056414847E12	128.0	128.0	42.70588489841043	-28.822471359070704	13.883413539339728	-605.0000721216288	
1.7388210564343757E12	128.0	128.0	42.686989031671175	-29.05196238183527	13.635026649835904	-605.0000721216288	
1.7388210564539048E12	128.0	128.0	42.79221448805505	-28.850021821263056	13.942192666791996	-605.0000721216288	
1.7388210564734338E12	128.0	128.0	42.76141855256779	-29.118314280308997	13.643104272258793	-605.0000721216288	
1.738821056492963E12	128.0	128.0	42.77454468900498	-29.01900279748473	13.75554189152025	-605.0000721216288	
1.738821056512492E12	128.0	128.0	42.85034452084834	-29.199595355939312	13.650749164909026	-605.0000721216288	
1.738821056532021E12	128.0	128.0	42.86577854940636	-29.12393976735351	13.741838782052849	-605.0000721216288	
1.73882105655155E12	128.0	128.0	42.9264328392068	-29.267894538389985	13.658538300816812	-605.0000721216288	
1.738821056571079E12	128.0	128.0	42.94431900314319	-29.21863546593612	13.725683537207072	-605.0000721216288	
1.7388210565906082E12	128.0	128.0	43.02826857903821	-29.369874521478952	13.65839405755926	-605.0000721216288	
1.738821056610137E12	128.0	128.0	43.040168647786224	-29.303811109520336	13.736357538265889	-605.0000721216288	
1.738821056629666E12	128.0	128.0	43.11344422262243	-29.04071140774625	14.072732814876177	-605.0000721216288	
1.738821056649195E12	128.0	128.0	43.11719454731877	-29.381630346969413	13.735564200349355	-605.0000721216288	
1.738821056668724E12	128.0	128.0	43.18599858117087	-29.09912992705464	14.086868654116232	-605.0000721216288	
1.7388210566882532E12	128.0	128.0	43.17474760708185	-29.442933731428834	13.731813875653014	-605.0000721216288	
1.7388210567077822E12	128.0	128.0	43.24802318191805	-29.17125155583043	14.076771626087622	-605.0000721216288	
1.7388210567273113E12	128.0	128.0	43.25588443945461	-29.534383956716535	13.721500482738076	-605.0000721216288	
1.7388210567468403E12	128.0	128.0	43.342502515614335	-29.275178822896343	14.067323692717993	-605.0000721216288	
1.7388210567663694E12	128.0	128.0	43.42428844264608	-29.163173933407535	14.261114509238544	-605.0000721216288	
1.7388210567858982E12	128.0	128.0	43.40705137336867	-29.34701196515703	14.060039408211638	-605.0000721216288	
1.7388210568054272E12	128.0	128.0	43.49064034111981	-29.248133212105415	14.24250712901439	-605.0000721216288	
1.7388210568249563E12	128.0	128.0	43.4924433818392	-29.439904623020247	14.052538758818956	-605.0000721216288	
1.7388210568444854E12	128.0	128.0	43.56571895667541	-29.310951150769135	14.254767805906274	-605.0000721216288	
1.7388210568640144E12	128.0	128.0	43.55201584720801	-29.51397353577299	14.038042311435023	-605.0000721216288	
1.7388210568835435E12	128.0	128.0	43.63459511215629	-29.37304787314509	14.261547239011199	-605.0000721216288	
1.7388210569030725E12	128.0	128.0	43.62125261083277	-29.597274017009028	14.023978593823744	-605.0000721216288	
1.7388210569226016E12	128.0	128.0	43.708014930250044	-29.446828299382723	14.26118663086732	-605.0000721216288	
1.7388210569421306E12	128.0	128.0	43.74797031259183	-29.667159875292768	14.080810437299066	-605.0000721216288	
1.7388210569616594E12	128.0	128.0	43.77898261296542	-29.558256215841322	14.2207263971241	-605.0000721216288	
1.7388210569811885E12	128.0	128.0	43.816630103186384	-29.766543479745806	14.05008662344058	-605.0000721216288	
1.7388210570007175E12	128.0	128.0	43.85254667431673	-29.615592910718075	14.236953763598653	-605.0000721216288	
1.7388210570202466E12	128.0	128.0	43.903608787489986	-29.81133101121557	14.092277776274416	-605.0000721216288	
1.7388210570397756E12	128.0	128.0	43.93555866903766	-29.700335824529628	14.235222844508034	-605.0000721216288	
1.7388210570593047E12	128.0	128.0	43.97551405137945	-29.874365314765612	14.101148736613839	-605.0000721216288	
1.7388210570788337E12	128.0	128.0	43.95099269759568	-30.212327267208966	13.738665430386714	-605.0000721216288	
1.7388210570983628E12	128.0	128.0	44.048356896443	-29.919946184151915	14.128410712291089	-605.0000721216288	
1.7388210571178918E12	128.0	128.0	44.00652635175304	-30.25913420428445	13.747392147468586	-605.0000721216288	
1.7388210571374207E12	128.0	128.0	44.11167968650815	-29.977715608801322	14.133964077706825	-605.0000721216288	
1.7388210571569497E12	128.0	128.0	44.08852864367112	-30.323033967379807	13.76549467629131	-605.0000721216288	
1.7388210571764788E12	128.0	128.0	44.178680679640856	-30.037143830912573	14.141536848728283	-605.0000721216288	
1.7388210571960078E12	128.0	128.0	44.166708489264074	-30.367388769076918	13.799319720187155	-605.0000721216288	
1.7388210572155369E12	128.0	128.0	44.25145140307563	-30.07983983514784	14.171611567927787	-605.0000721216288	
1.738821057235066E12	128.0	128.0	44.22779550883717	-30.40402655649502	13.823768952342148	-605.0000721216288	
1.738821057254595E12	128.0	128.0	44.20716872300729	-30.49980407950927	13.707364643498021	-605.0000721216288	
1.738821057274124E12	128.0	128.0	44.27215031053428	-30.45198743963092	13.820162870903358	-605.0000721216288	
1.738821057293653E12	128.0	128.0	44.26659694511854	-30.581662128169793	13.68493481694875	-605.0000721216288	
1.738821057313182E12	128.0	128.0	44.35732595411849	-30.5211520816269	13.836173872491583	-605.0000721216288	
1.738821057332711E12	128.0	128.0	44.34362284465109	-30.64202793145513	13.701594913195958	-605.0000721216288	
1.73882105735224E12	128.0	128.0	44.426562717743245	-30.59053308850921	13.836029629234032	-605.0000721216288	
1.738821057371769E12	128.0	128.0	44.407738972632764	-30.73362240000038	13.674116572632382	-605.0000721216288	
1.738821057391298E12	128.0	128.0	44.448127084747206	-30.50355440420561	13.944572680541597	-605.0000721216288	
1.7388210574108271E12	128.0	128.0	44.47135024921301	-30.782953594083022	13.688396655129988	-605.0000721216288	
1.7388210574303562E12	128.0	128.0	44.50762742848723	-30.57704634392814	13.930581084559094	-605.0000721216288	
1.7388210574498853E12	128.0	128.0	44.51346928041807	-30.85940252058536	13.654066759832713	-605.0000721216288	
1.7388210574694143E12	128.0	128.0	44.55818469025907	-30.643181877515545	13.915002812743523	-605.0000721216288	
1.738821057488943E12	128.0	128.0	44.593019436957775	-30.89344392936754	13.699575507590236	-605.0000721216288	
1.7388210575084722E12	128.0	128.0	44.63160450835282	-30.716168965836644	13.915435542516178	-605.0000721216288	
1.7388210575280012E12	128.0	128.0	44.716708030308254	-30.477662739475104	14.23904529083315	-605.0000721216288	
1.7388210575475303E12	128.0	128.0	44.69918247451574	-30.78785786483978	13.911324609675958	-605.0000721216288	
1.7388210575670593E12	128.0	128.0	44.777145955222366	-30.527570906587947	14.249575048634417	-605.0000721216288	
1.7388210575865884E12	128.0	128.0	44.763442845754966	-30.856950385206986	13.90649246054798	-605.0000721216288	
1.7388210576061174E12	128.0	128.0	44.83116505517543	-30.585989425896337	14.245175629279094	-605.0000721216288	
1.7388210576256465E12	128.0	128.0	44.808014012338404	-30.901377308532872	13.906636703805532	-605.0000721216288	
1.7388210576451755E12	128.0	128.0	44.88460718209829	-30.626954511040985	14.257652671057306	-605.0000721216288	
1.7388210576647043E12	128.0	128.0	44.87934230319766	-31.0043669944247	13.87497530877296	-605.0000721216288	
1.7388210576842334E12	128.0	128.0	44.96394097375166	-30.724823561289735	14.239117412461926	-605.0000721216288	
1.7388210577037625E12	128.0	128.0	45.04276991400361	-30.790670608362035	14.25209930564157	-605.0000721216288	
1.7388210577232915E12	128.0	128.0	45.02913892616498	-30.82132230059175	14.207816625573233	-605.0000721216288	
1.7388210577428206E12	128.0	128.0	45.08200408005764	-30.819807746387454	14.26219633367018	-605.0000721216288	
1.7388210577623496E12	128.0	128.0	45.09412051369197	-30.86892257558377	14.225197938108199	-605.0000721216288	
1.7388210577818787E12	128.0	128.0	45.13746561258622	-30.86473952111477	14.272726091471446	-605.0000721216288	
1.7388210578014077E12	128.0	128.0	45.15455843860608	-30.923807135082146	14.230751303523935	-605.0000721216288	
1.7388210578209368E12	128.0	128.0	45.211534525338955	-30.925177446028883	14.28635707931007	-605.0000721216288	
1.7388210578404656E12	128.0	128.0	45.20814480878649	-31.235949544423768	13.972195264362725	-605.0000721216288	
1.7388210578599946E12	128.0	128.0	45.26988092301857	-30.983091113935842	14.286789809082725	-605.0000721216288	
1.7388210578795237E12	128.0	128.0	45.24896565067359	-31.278429183772708	13.970536466900882	-605.0000721216288	
1.7388210578990527E12	128.0	128.0	45.317048468237935	-31.028311375178262	14.288737093059671	-605.0000721216288	
1.7388210579185818E12	128.0	128.0	45.31373087331425	-31.308071173199558	14.005659700114693	-605.0000721216288	
1.7388210579381108E12	128.0	128.0	45.36529783788894	-31.074685582481095	14.290612255407842	-605.0000721216288	
1.73882105795764E12	128.0	128.0	45.36652390557813	-31.267683061085116	14.098840844493013	-605.0000721216288	
1.738821057977169E12	128.0	128.0	45.421913316477934	-31.002203345561426	14.419709970916507	-605.0000721216288	
1.738821057996698E12	128.0	128.0	45.41253750473708	-31.298695361458705	14.113842143278378	-605.0000721216288	
1.7388210580162268E12	128.0	128.0	45.365874810919145	-31.585162470956142	13.780712339963001	-605.0000721216288	
1.7388210580357559E12	128.0	128.0	45.44044857507331	-31.36886970625755	14.071578868815765	-605.0000721216288	
1.738821058055285E12	128.0	128.0	45.39530043545967	-31.657428342989487	13.73787209247018	-605.0000721216288	
1.738821058074814E12	128.0	128.0	45.49922770252558	-31.50654989559053	13.992677806935049	-605.0000721216288	
1.738821058094343E12	128.0	128.0	45.47095602404547	-31.763375015661122	13.707581008384349	-605.0000721216288	
1.738821058113872E12	128.0	128.0	45.55396801876641	-31.52176755926223	14.032200459504184	-605.0000721216288	
1.7388210581334011E12	128.0	128.0	45.52201813721873	-31.794675802549815	13.727342334668915	-605.0000721216288	
1.7388210581529302E12	128.0	128.0	45.508242906122554	-31.71108683479867	13.797156071323881	-605.0000721216288	
1.7388210581724592E12	128.0	128.0	45.56940204732443	-31.841194253110206	13.728207794214224	-605.0000721216288	
1.738821058191988E12	128.0	128.0	45.57473904785384	-31.786670301755706	13.788068746098132	-605.0000721216288	
1.738821058211517E12	128.0	128.0	45.6302727020112	-31.88324116268649	13.747031539324707	-605.0000721216288	
1.7388210582310461E12	128.0	128.0	45.61837263326319	-31.81039831762294	13.80797431564025	-605.0000721216288	
1.7388210582505752E12	128.0	128.0	45.68797000503183	-31.907978881356584	13.779991123675243	-605.0000721216288	
1.7388210582701042E12	128.0	128.0	45.67340143601912	-31.866364701552953	13.807036734466164	-605.0000721216288	
1.7388210582896333E12	128.0	128.0	45.74105152381081	-31.576291510616723	14.164760013194087	-605.0000721216288	
1.7388210583091624E12	128.0	128.0	45.731892076956285	-31.935529343548936	13.796362733407348	-605.0000721216288	
1.7388210583286914E12	128.0	128.0	45.80105671895227	-31.657644707875814	14.143412011076453	-605.0000721216288	
1.7388210583482205E12	128.0	128.0	45.7649237829356	-31.989548443502002	13.775375339433593	-605.0000721216288	
1.7388210583677493E12	128.0	128.0	45.82153926152459	-31.71159168620011	14.109947575324485	-605.0000721216288	
1.7388210583872783E12	128.0	128.0	45.818077423343354	-32.04270208390976	13.775375339433593	-605.0000721216288	
1.7388210584068074E12	128.0	128.0	45.85731158939738	-31.75544163649579	14.101869952901597	-605.0000721216288	
1.7388210584263364E12	128.0	128.0	45.86820195534253	-32.09636057571895	13.771841379623579	-605.0000721216288	
1.7388210584458655E12	128.0	128.0	45.918614973856805	-31.822154143113394	14.096460830743412	-605.0000721216288	
1.7388210584653945E12	128.0	128.0	45.97674500665009	-31.644157963294738	14.332587043355351	-605.0000721216288	
1.7388210584849236E12	128.0	128.0	45.96578251907617	-31.857998592614962	14.107783926461211	-605.0000721216288	
1.7388210585044526E12	128.0	128.0	46.04475570258567	-31.68743094056022	14.357324762025447	-605.0000721216288	
1.7388210585239814E12	128.0	128.0	46.01619553759045	-31.929543248360545	14.086652289229905	-605.0000721216288	
1.7388210585435105E12	128.0	128.0	46.09783722136465	-31.75133070365557	14.346506517709079	-605.0000721216288	
1.7388210585630396E12	128.0	128.0	46.061920650234306	-31.982985375283413	14.078935274950895	-605.0000721216288	
1.7388210585825686E12	128.0	128.0	46.14514900984157	-31.822298386370946	14.32285062347062	-605.0000721216288	
1.7388210586020977E12	128.0	128.0	46.1802001214266	-31.983778713199943	14.196421408226659	-605.0000721216288	
1.7388210586216267E12	128.0	128.0	46.189215325023575	-31.862109525455182	14.327105799568391	-605.0000721216288	
1.7388210586411558E12	128.0	128.0	46.21539547626919	-32.02279651436764	14.192598961901542	-605.0000721216288	
1.7388210586606848E12	128.0	128.0	46.225204017782694	-31.897304880297767	14.327899137484925	-605.0000721216288	
1.7388210586802139E12	128.0	128.0	46.25837996701956	-32.065564640231685	14.19281532678787	-605.0000721216288	
1.7388210586997427E12	128.0	128.0	46.28405526686374	-31.952550047940022	14.331505218923715	-605.0000721216288	
1.7388210587192717E12	128.0	128.0	46.309658445079144	-32.085253844887475	14.224404600191665	-605.0000721216288	
1.7388210587388008E12	128.0	128.0	46.280881915197604	-32.43562071748027	13.845261197717333	-605.0000721216288	
1.7388210587583298E12	128.0	128.0	46.370817586281014	-32.150163310785686	14.220654275495324	-605.0000721216288	
1.738821058777859E12	128.0	128.0	46.33468465026434	-32.459348733347504	13.875335916916839	-605.0000721216288	
1.738821058797388E12	128.0	128.0	46.41632633403854	-32.19047930127135	14.22584703276718	-605.0000721216288	
1.738821058816917E12	128.0	128.0	46.394257115633145	-32.521156969208356	13.87310014642479	-605.0000721216288	
1.738821058836446E12	128.0	128.0	46.46024840596299	-32.228631642893745	14.231616763069244	-605.0000721216288	
1.738821058855975E12	128.0	128.0	46.414306928432815	-32.53644675450882	13.877860173923992	-605.0000721216288	
1.738821058875504E12	128.0	128.0	46.51080566773482	-32.258634240464474	14.252171427270346	-605.0000721216288	
1.738821058895033E12	128.0	128.0	46.480586705277766	-32.58613855673534	13.894448148542423	-605.0000721216288	
1.738821058914562E12	128.0	128.0	46.45065622933581	-32.706653798419694	13.744002430916122	-605.0000721216288	
1.738821058934091E12	128.0	128.0	46.529196683072655	-32.62039633040385	13.908800352668806	-605.0000721216288	
1.73882105895362E12	128.0	128.0	46.49371284171496	-32.7489170728823	13.744795768832658	-605.0000721216288	
1.7388210589731492E12	128.0	128.0	46.5791048501855	-32.69511433781557	13.883990512369934	-605.0000721216288	
1.7388210589926782E12	128.0	128.0	46.53813976504085	-32.82594297241485	13.712196792625999	-605.0000721216288	
1.7388210590122073E12	128.0	128.0	46.61343474548278	-32.72353025955323	13.889904485929549	-605.0000721216288	
1.7388210590317363E12	128.0	128.0	46.58191759370776	-32.86178742191642	13.720130171791336	-605.0000721216288	
1.7388210590512651E12	128.0	128.0	46.59764010878088	-32.62926729074327	13.968372818037608	-605.0000721216288	
1.7388210590707942E12	128.0	128.0	46.62519057097323	-32.89049183016918	13.734698740804046	-605.0000721216288	
1.7388210590903232E12	128.0	128.0	46.67185326479117	-32.698576175996806	13.973277088794362	-605.0000721216288	
1.7388210591098523E12	128.0	128.0	46.693489753423904	-32.959800715422716	13.733689038001184	-605.0000721216288	
1.7388210591293813E12	128.0	128.0	46.71411653925378	-32.75021526220027	13.963901277053509	-605.0000721216288	
1.7388210591489104E12	128.0	128.0	46.72731479731975	-33.006391287611876	13.72092350970787	-605.0000721216288	
1.7388210591684395E12	128.0	128.0	46.75731739489048	-32.805460429842526	13.951856965047952	-605.0000721216288	
1.7388210591879685E12	128.0	128.0	46.78140601890159	-33.02874899253237	13.752657026369219	-605.0000721216288	
1.7388210592074976E12	128.0	128.0	46.800013399125746	-32.848733407108	13.951279992017746	-605.0000721216288	
1.7388210592270264E12	128.0	128.0	46.88302539384668	-32.5868597730231	14.296165620823578	-605.0000721216288	
1.7388210592465554E12	128.0	128.0	46.86311982430456	-32.910469521340076	13.952650302964486	-605.0000721216288	
1.7388210592660845E12	128.0	128.0	46.93235658792932	-32.625661209304475	14.306695378624843	-605.0000721216288	
1.7388210592856135E12	128.0	128.0	46.91699468100008	-32.96138739125578	13.955607289744293	-605.0000721216288	
1.7388210593051426E12	128.0	128.0	46.97656714636888	-32.692301594293305	14.284265552075572	-605.0000721216288	
1.7388210593246716E12	128.0	128.0	46.941876642927724	-33.01742589681457	13.924450746113152	-605.0000721216288	
1.7388210593442007E12	128.0	128.0	47.0149358528776	-32.73874792322491	14.276187929652684	-605.0000721216288	
1.7388210593637297E12	128.0	128.0	47.05705488408267	-32.7233138946669	14.333740989415764	-605.0000721216288	
1.7388210593832588E12	128.0	128.0	47.068738587944345	-32.78620395495939	14.282534632984953	-605.0000721216288	
1.7388210594027876E12	128.0	128.0	47.1171322008529	-32.756850452047644	14.360281748805255	-605.0000721216288	
1.7388210594223167E12	128.0	128.0	47.0962890501367	-32.8305587566565	14.265730293480194	-605.0000721216288	
1.7388210594418457E12	128.0	128.0	47.15521242084652	-32.813033200863984	14.342179219982532	-605.0000721216288	
1.7388210594613748E12	128.0	128.0	47.14107658160646	-32.87015353085441	14.270923050752051	-605.0000721216288	
1.7388210594809038E12	128.0	128.0	47.19177808663584	-32.83524666252693	14.356531424108914	-605.0000721216288	
1.7388210595004329E12	128.0	128.0	47.18406107235683	-33.124238029031524	14.059823043325311	-605.0000721216288	
1.738821059519962E12	128.0	128.0	47.22372796818352	-32.86964867945298	14.354079288730537	-605.0000721216288	
1.738821059539491E12	128.0	128.0	47.19913449277097	-33.14508117974773	14.054053313023248	-605.0000721216288	
1.73882105955902E12	128.0	128.0	47.26123121514693	-32.91400348115009	14.347227733996837	-605.0000721216288	
1.7388210595785488E12	128.0	128.0	47.26627972916123	-33.19347479265628	14.072804936504953	-605.0000721216288	
1.738821059598078E12	128.0	128.0	47.30645147638935	-32.9673013648154	14.339150111573948	-605.0000721216288	
1.738821059617607E12	128.0	128.0	47.31056240922957	-33.23227622893766	14.078286180291913	-605.0000721216288	
1.738821059637136E12	128.0	128.0	47.36652879315958	-33.01728165355702	14.349247139602559	-605.0000721216288	
1.738821059656665E12	128.0	128.0	47.35801844096404	-33.25831213692572	14.099706304038323	-605.0000721216288	
1.738821059676194E12	128.0	128.0	47.320370950743076	-33.54052407032538	13.779846880417692	-605.0000721216288	
1.7388210596957231E12	128.0	128.0	47.38967983599661	-33.29127172127625	14.098408114720359	-605.0000721216288	
1.7388210597152522E12	128.0	128.0	47.35318629183606	-33.5628096536171	13.790376638218957	-605.0000721216288	
1.7388210597347812E12	128.0	128.0	47.4367752595872	-33.33497742831438	14.10179783127282	-605.0000721216288	
1.73882105975431E12	128.0	128.0	47.381025240543515	-33.5809843040686	13.800040936474913	-605.0000721216288	
1.738821059773839E12	128.0	128.0	47.48437553457922	-33.352286619220564	14.132088915358654	-605.0000721216288	
1.7388210597933682E12	128.0	128.0	47.441823773601506	-33.623896673190195	13.817927100411309	-605.0000721216288	
1.7388210598128972E12	128.0	128.0	47.4296352183384	-33.56865150554794	13.860983712790455	-605.0000721216288	
1.7388210598324263E12	128.0	128.0	47.49000102162373	-33.67257877261385	13.817422249009878	-605.0000721216288	
1.7388210598519553E12	128.0	128.0	47.46966272230896	-33.61718936171405	13.852473360594912	-605.0000721216288	
1.7388210598714844E12	128.0	128.0	47.520436348967124	-33.714120830788715	13.806315518178407	-605.0000721216288	
1.7388210598910134E12	128.0	128.0	47.51358479423342	-33.69046493655025	13.823119857683166	-605.0000721216288	
1.7388210599105425E12	128.0	128.0	47.561545677369324	-33.75775441619807	13.803791261171254	-605.0000721216288	
1.7388210599300713E12	128.0	128.0	47.54430860809191	-33.72291966949936	13.821388938592547	-605.0000721216288	
1.7388210599496003E12	128.0	128.0	47.59522647800762	-33.769293876802195	13.825932601205421	-605.0000721216288	
1.7388210599691294E12	128.0	128.0	47.58592278789554	-33.70481714067664	13.881105647218902	-605.0000721216288	
1.7388210599886584E12	128.0	128.0	47.64982255099089	-33.43291860019191	14.216903950798983	-605.0000721216288	
1.7388210600081875E12	128.0	128.0	47.62573392697978	-33.79799828505496	13.827735641924816	-605.0000721216288	
1.7388210600277166E12	128.0	128.0	47.66540082280646	-33.49277955207582	14.172621270730648	-605.0000721216288	
1.7388210600472456E12	128.0	128.0	47.63575883337961	-33.81804809785463	13.817710735524981	-605.0000721216288	
1.7388210600667747E12	128.0	128.0	47.69713433946781	-33.541966502900905	14.155167836566907	-605.0000721216288	
1.7388210600863037E12	128.0	128.0	47.67484875617609	-33.847762208910254	13.827086547265834	-605.0000721216288	
1.7388210601058325E12	128.0	128.0	47.72793027495507	-33.581705520356365	14.146224754598709	-605.0000721216288	
1.7388210601253616E12	128.0	128.0	47.80603799891925	-33.413373638793665	14.392664360125586	-605.0000721216288	
1.7388210601448906E12	128.0	128.0	47.77235719828096	-33.635868863566984	14.136488334713977	-605.0000721216288	
1.7388210601644197E12	128.0	128.0	47.83503089368712	-33.44755929083339	14.38747160285373	-605.0000721216288	
1.7388210601839487E12	128.0	128.0	47.794642781572676	-33.6718575563261	14.122785225246577	-605.0000721216288	
1.7388210602034778E12	128.0	128.0	47.86842320781031	-33.51542574351141	14.3529974642989	-605.0000721216288	
1.7388210602230068E12	128.0	128.0	47.830631474331796	-33.72616514279427	14.104466331537525	-605.0000721216288	
1.738821060242536E12	128.0	128.0	47.893521534624284	-33.50525659385402	14.388264940770263	-605.0000721216288	
1.738821060262065E12	128.0	128.0	47.90296946799391	-33.668756326288744	14.234213141705172	-605.0000721216288	
1.7388210602815938E12	128.0	128.0	47.91126345530313	-33.53367251559168	14.377590939711446	-605.0000721216288	
1.7388210603011228E12	128.0	128.0	47.94580971548673	-33.70330258647234	14.24250712901439	-605.0000721216288	
1.7388210603206519E12	128.0	128.0	47.96463346059721	-33.59079284558211	14.373840615015105	-605.0000721216288	
1.738821060340181E12	128.0	128.0	47.990308760441394	-33.72746333211223	14.262845428329163	-605.0000721216288	
1.73882106035971E12	128.0	128.0	47.99932396403837	-33.619785740349975	14.379538223688392	-605.0000721216288	
1.738821060379239E12	128.0	128.0	48.03415871073708	-33.768428417256885	14.265730293480194	-605.0000721216288	
1.738821060398768E12	128.0	128.0	48.015407087255376	-33.66212113644137	14.353285950814003	-605.0000721216288	
1.738821060418297E12	128.0	128.0	48.059257037551056	-33.7901370275184	14.269120010032657	-605.0000721216288	
1.7388210604378262E12	128.0	128.0	48.02550411528399	-34.107400072503104	13.918104042780882	-605.0000721216288	
1.738821060457355E12	128.0	128.0	48.09733725754467	-33.79778192016863	14.29955533737604	-605.0000721216288	
1.738821060476884E12	128.0	128.0	48.06856072766313	-34.164087672720875	13.904473054942258	-605.0000721216288	
1.738821060496413E12	128.0	128.0	48.129719868865	-33.832833031753665	14.296886837111336	-605.0000721216288	
1.7388210605159421E12	128.0	128.0	48.0972651359159	-34.14050390011119	13.956761235804706	-605.0000721216288	
1.7388210605354712E12	128.0	128.0	48.15748669594368	-33.85245011478068	14.305036581163	-605.0000721216288	
1.7388210605550002E12	128.0	128.0	48.117675556859446	-34.15990461825188	13.957770938607567	-605.0000721216288	
1.7388210605745293E12	128.0	128.0	48.09603906822671	-34.29671934803955	13.799319720187155	-605.0000721216288	
1.7388210605940583E12	128.0	128.0	48.15373637124734	-34.202816987373474	13.950919383873867	-605.0000721216288	
1.7388210606135874E12	128.0	128.0	48.12005557060905	-34.335737149207255	13.78431842140179	-605.0000721216288	
1.7388210606331162E12	128.0	128.0	48.17299284613048	-34.22654500324071	13.946447842889768	-605.0000721216288	
1.7388210606526453E12	128.0	128.0	48.14753391117262	-34.382832572797845	13.764701338374776	-605.0000721216288	
1.7388210606721743E12	128.0	128.0	48.20465424116305	-34.23837295035994	13.96628129080311	-605.0000721216288	
1.7388210606917034E12	128.0	128.0	48.1845323067346	-34.40958969707366	13.774942609660938	-605.0000721216288	
1.7388210607112324E12	128.0	128.0	48.20414938976162	-34.19546058123834	14.008688808523276	-605.0000721216288	
1.7388210607307615E12	128.0	128.0	48.20739486305653	-34.43180315873661	13.77559170431992	-605.0000721216288	
1.7388210607502905E12	128.0	128.0	48.23119500055254	-34.21904435384803	14.012150646704514	-605.0000721216288	
1.7388210607698196E12	128.0	128.0	48.244609623504836	-34.46065181024692	13.783957813257912	-605.0000721216288	
1.7388210607893486E12	128.0	128.0	48.25434604338957	-34.261019141795536	13.993326901594033	-605.0000721216288	
1.7388210608088774E12	128.0	128.0	48.26905885565983	-34.49714535440747	13.771913501252355	-605.0000721216288	
1.7388210608284065E12	128.0	128.0	48.28117528929416	-34.31229761985512	13.968877669439038	-605.0000721216288	
1.7388210608479355E12	128.0	128.0	48.27677586993884	-34.516257586033056	13.76051828390578	-605.0000721216288	
1.7388210608674646E12	128.0	128.0	48.29934993974566	-34.34417537977402	13.955174559971638	-605.0000721216288	
1.7388210608869937E12	128.0	128.0	48.313846387129594	-34.01703167164703	14.29681471548256	-605.0000721216288	
1.7388210609065227E12	128.0	128.0	48.30086449394995	-34.32931832424621	13.971546169703743	-605.0000721216288	
1.7388210609260518E12	128.0	128.0	48.32661191542291	-34.032898429977706	14.2937134854452	-605.0000721216288	
1.7388210609455808E12	128.0	128.0	48.31831792811369	-34.3627106383694	13.955607289744293	-605.0000721216288	
1.7388210609651096E12	128.0	128.0	48.36036483768998	-34.11374677583537	14.24661806185461	-605.0000721216288	
1.7388210609846387E12	128.0	128.0	48.36166302700794	-34.46274333748142	13.898919689526522	-605.0000721216288	
1.7388210610041677E12	128.0	128.0	48.370173379203486	-34.09348059814937	14.276692781054114	-605.0000721216288	
1.7388210610236968E12	128.0	128.0	48.37522189321779	-34.01825773933622	14.356964153881568	-605.0000721216288	
1.7388210610432258E12	128.0	128.0	48.378395244883926	-34.071267136486426	14.307128108397498	-605.0000721216288	
1.738821061062755E12	128.0	128.0	48.38964621897295	-34.01018011691333	14.379466102059617	-605.0000721216288	
1.738821061082284E12	128.0	128.0	48.39310805715419	-34.10992432951025	14.283183727643936	-605.0000721216288	
1.738821061101813E12	128.0	128.0	48.400680828175645	-34.02438807778216	14.376292750393482	-605.0000721216288	
1.738821061121342E12	128.0	128.0	48.402916598667694	-34.12067045219784	14.28224614646985	-605.0000721216288	
1.7388210611408708E12	128.0	128.0	48.414023329499166	-34.0412645389157	14.372758790583468	-605.0000721216288	
1.7388210611604E12	128.0	128.0	48.41863911374082	-34.14468695458018	14.273952159160634	-605.0000721216288	
1.738821061179929E12	128.0	128.0	48.4237597493839	-34.03484571395465	14.388914035429245	-605.0000721216288	
1.738821061199458E12	128.0	128.0	48.4308997906327	-34.32960681076131	14.10129297987139	-605.0000721216288	
1.738821061218987E12	128.0	128.0	48.44236712960805	-34.06556952781314	14.376797601794912	-605.0000721216288	
1.738821061238516E12	128.0	128.0	48.441790156577845	-34.3355929059497	14.106197250628144	-605.0000721216288	
1.7388210612580452E12	128.0	128.0	48.44647806244827	-34.05684281073127	14.389635251717003	-605.0000721216288	
1.7388210612775742E12	128.0	128.0	48.452752644151765	-34.327731648413135	14.125020995738627	-605.0000721216288	
1.7388210612971033E12	128.0	128.0	48.45837813119628	-34.079705367053194	14.378672764143083	-605.0000721216288	
1.738821061316632E12	128.0	128.0	48.46638363199039	-34.349440258674655	14.116943373315737	-605.0000721216288	
1.7388210613361611E12	128.0	128.0	48.46025329354445	-34.62941642158227	13.830836871962175	-605.0000721216288	
1.7388210613556902E12	128.0	128.0	48.48369282289658	-34.363864584429805	14.11982823846677	-605.0000721216288	
1.7388210613752192E12	128.0	128.0	48.47597580861757	-34.66403480339465	13.811941005222918	-605.0000721216288	
1.7388210613947483E12	128.0	128.0	48.49681895933377	-34.36379246280103	14.13302649653274	-605.0000721216288	
1.7388210614142773E12	128.0	128.0	48.48996740460007	-34.67499729096857	13.814970113631501	-605.0000721216288	
1.7388210614338064E12	128.0	128.0	48.5017953517193	-34.35297421848466	14.148821133234637	-605.0000721216288	
1.7388210614533354E12	128.0	128.0	48.510594190429956	-34.690936170928026	13.819658019501928	-605.0000721216288	
1.7388210614728645E12	128.0	128.0	48.50460809524156	-34.62465639408307	13.87995170115849	-605.0000721216288	
1.7388210614923933E12	128.0	128.0	48.516075434216916	-34.68451734596698	13.831558088249933	-605.0000721216288	
1.7388210615119224E12	128.0	128.0	48.52732640830594	-34.68141611592962	13.845910292376315	-605.0000721216288	
1.7388210615314514E12	128.0	128.0	48.521412434746324	-34.68314703502024	13.838265399726081	-605.0000721216288	
1.7388210615509805E12	128.0	128.0	48.528913084139006	-34.66677542528814	13.862137658850868	-605.0000721216288	
1.7388210615705095E12	128.0	128.0	48.53482705769862	-34.68870040043598	13.846126657262642	-605.0000721216288	
1.7388210615900386E12	128.0	128.0	48.53057188160085	-34.65581293771422	13.874758943886633	-605.0000721216288	
1.7388210616095676E12	128.0	128.0	48.546943491332954	-34.69035919789782	13.856584293435132	-605.0000721216288	
1.7388210616290967E12	128.0	128.0	48.54319316663661	-34.68213733221738	13.861055834419231	-605.0000721216288	
1.7388210616486257E12	128.0	128.0	48.54095739614456	-34.33119348659439	14.20976390955018	-605.0000721216288	
1.7388210616681545E12	128.0	128.0	48.54542893712866	-34.67564638562756	13.869782551501103	-605.0000721216288	
1.7388210616876836E12	128.0	128.0	48.55610293818748	-34.372014328481484	14.184088609705999	-605.0000721216288	
1.7388210617072126E12	128.0	128.0	48.56648845273119	-34.73384854004962	13.83263991268157	-605.0000721216288	
1.7388210617267417E12	128.0	128.0	48.572618791177135	-34.392713235940136	14.179905555237003	-605.0000721216288	
1.7388210617462708E12	128.0	128.0	48.57882125125185	-34.74178191921496	13.837039332036893	-605.0000721216288	
1.7388210617657998E12	128.0	128.0	48.57781154844899	-34.417883684382886	14.159927864066109	-605.0000721216288	
1.7388210617853289E12	128.0	128.0	48.590577076742306	-34.18312778271768	14.407449294024623	-605.0000721216288	
1.738821061804858E12	128.0	128.0	48.58963949556822	-34.421345522564124	14.1682939730041	-605.0000721216288	
1.738821061824387E12	128.0	128.0	48.59432740143865	-34.17620410635521	14.41812329508344	-605.0000721216288	
1.7388210618439158E12	128.0	128.0	48.598294091021316	-34.451636606649956	14.146657484371364	-605.0000721216288	
1.7388210618634448E12	128.0	128.0	48.61279053840525	-34.21832313756027	14.39446740084498	-605.0000721216288	
1.7388210618829739E12	128.0	128.0	48.60752565950462	-34.46800821638206	14.13951744312256	-605.0000721216288	
1.738821061902503E12	128.0	128.0	48.622815444805084	-34.21861162407537	14.404203820729713	-605.0000721216288	
1.738821061922032E12	128.0	128.0	48.61430509260954	-34.48185556910701	14.132449523502533	-605.0000721216288	
1.738821061941561E12	128.0	128.0	48.62346453946407	-34.20591821741083	14.417546322053234	-605.0000721216288	
1.73882106196109E12	128.0	128.0	48.61668510635914	-34.2876320228138	14.329053083545338	-605.0000721216288	
1.7388210619806191E12	128.0	128.0	48.615459038669954	-34.17714168752929	14.438317351140661	-605.0000721216288	
1.7388210620001482E12	128.0	128.0	48.6242578773806	-34.286405955124614	14.337851922255984	-605.0000721216288	
1.738821062019677E12	128.0	128.0	48.6194978498814	-34.191710256542	14.427787593339396	-605.0000721216288	
1.738821062039206E12	128.0	128.0	48.629306391394906	-34.316192187809015	14.313114203585888	-605.0000721216288	
1.738821062058735E12	128.0	128.0	48.635653094727175	-34.22690561138459	14.408747483342587	-605.0000721216288	
1.7388210620782642E12	128.0	128.0	48.641639189915566	-34.326649823981505	14.314989365934059	-605.0000721216288	
1.7388210620977932E12	128.0	128.0	48.65094288002764	-34.70110532058541	13.94983755944223	-605.0000721216288	
1.7388210621173223E12	128.0	128.0	48.653106528890916	-34.34302143371361	14.310085095177305	-605.0000721216288	
1.7388210621368513E12	128.0	128.0	48.66075142154115	-34.70781263206156	13.952938789479589	-605.0000721216288	
1.7388210621563804E12	128.0	128.0	48.671281179342415	-34.35239724545446	14.318883933887951	-605.0000721216288	
1.7388210621759094E12	128.0	128.0	48.66724236813097	-34.70096107732786	13.96628129080311	-605.0000721216288	
1.7388210621954382E12	128.0	128.0	48.676401814985496	-34.359032435301835	14.31736937968366	-605.0000721216288	
1.7388210622149673E12	128.0	128.0	48.68217154528756	-34.72670849880082	13.955463046486742	-605.0000721216288	
1.7388210622344963E12	128.0	128.0	48.680368504568165	-34.87239418892791	13.80797431564025	-605.0000721216288	
1.7388210622540254E12	128.0	128.0	48.68931158653636	-34.71040901069749	13.978902575838873	-605.0000721216288	
1.7388210622735544E12	128.0	128.0	48.68541701858247	-34.873043283586895	13.812373734995573	-605.0000721216288	
1.7388210622930835E12	128.0	128.0	48.704529250208054	-34.72447272830877	13.980056521899286	-605.0000721216288	
1.7388210623126125E12	128.0	128.0	48.69385524914924	-34.87484632430629	13.819008924842946	-605.0000721216288	
1.7388210623321416E12	128.0	128.0	48.71729477850137	-34.74668618997171	13.970608588529657	-605.0000721216288	
1.7388210623516707E12	128.0	128.0	48.71029898051012	-34.909897435891324	13.800401544618792	-605.0000721216288	
1.7388210623711995E12	128.0	128.0	48.72306450880343	-34.72548243111163	13.997582077691805	-605.0000721216288	
1.7388210623907285E12	128.0	128.0	48.715491737781974	-34.89641069131025	13.819081046471721	-605.0000721216288	
1.7388210624102576E12	128.0	128.0	48.71311172403237	-34.677954277748384	14.035157446283991	-605.0000721216288	
1.7388210624297866E12	128.0	128.0	48.729843941908356	-34.93427454641754	13.795569395490814	-605.0000721216288	
1.7388210624493157E12	128.0	128.0	48.717366900130145	-34.68300279176269	14.034364108367457	-605.0000721216288	
1.7388210624688447E12	128.0	128.0	48.73316153683204	-34.93326484361468	13.799896693217361	-605.0000721216288	
1.7388210624883738E12	128.0	128.0	48.73258456380184	-34.70370169922134	14.028882864580497	-605.0000721216288	
1.7388210625079028E12	128.0	128.0	48.75530287686621	-34.95771407576967	13.797588801096536	-605.0000721216288	
1.738821062527432E12	128.0	128.0	48.75140830891232	-34.727790323232455	14.023617985679865	-605.0000721216288	
1.7388210625469607E12	128.0	128.0	48.756601066184174	-34.39545385783361	14.361147208350564	-605.0000721216288	
1.7388210625664897E12	128.0	128.0	48.75313922800294	-34.7365891619431	14.016550066059837	-605.0000721216288	
1.7388210625860188E12	128.0	128.0	48.762587161372565	-34.40180056116588	14.360786600206685	-605.0000721216288	
1.7388210626055479E12	128.0	128.0	48.75696167432805	-34.75288865004643	14.004073024281626	-605.0000721216288	
1.738821062625077E12	128.0	128.0	48.76684233747034	-34.406632710293856	14.360209627176479	-605.0000721216288	
1.738821062644606E12	128.0	128.0	48.78169939299815	-34.80842230420379	13.973277088794362	-605.0000721216288	
1.738821062664135E12	128.0	128.0	48.786387298868576	-34.460435445360595	14.325951853507979	-605.0000721216288	
1.738821062683664E12	128.0	128.0	48.79215702917064	-34.41117637290673	14.380980656263908	-605.0000721216288	
1.738821062703193E12	128.0	128.0	48.794464921291464	-34.47702341997903	14.317441501312436	-605.0000721216288	
1.738821062722722E12	128.0	128.0	48.80326376000211	-34.40396421002915	14.399299549972959	-605.0000721216288	
1.738821062742251E12	128.0	128.0	48.79936919204822	-34.4770955416078	14.322273650440414	-605.0000721216288	
1.73882106276178E12	128.0	128.0	48.8089613686754	-34.407858777983044	14.401102590692354	-605.0000721216288	
1.738821062781309E12	128.0	128.0	48.805066800721505	-34.47853797418332	14.326528826538185	-605.0000721216288	
1.7388210628008381E12	128.0	128.0	48.8140098826897	-34.40670483192263	14.407305050767071	-605.0000721216288	
1.7388210628203672E12	128.0	128.0	48.81033167962214	-34.47817736603944	14.332154313582697	-605.0000721216288	
1.7388210628398962E12	128.0	128.0	48.81905839670401	-34.39610295249259	14.422955444211418	-605.0000721216288	
1.7388210628594253E12	128.0	128.0	48.82331357280178	-34.69569619842723	14.127617374374555	-605.0000721216288	
1.7388210628789543E12	128.0	128.0	48.83002088427793	-34.414710332716744	14.415310551561184	-605.0000721216288	
1.7388210628984832E12	128.0	128.0	48.83319423594406	-34.70694717251625	14.126247063427815	-605.0000721216288	
1.7388210629180122E12	128.0	128.0	48.84177670976838	-34.43879895672786	14.402977753040524	-605.0000721216288	
1.7388210629375413E12	128.0	128.0	48.848556142873306	-34.733415810276966	14.115140332596342	-605.0000721216288	
1.7388210629570703E12	128.0	128.0	48.82843420844486	-34.370355531019634	14.458078677425227	-605.0000721216288	
1.7388210629765994E12	128.0	128.0	48.82244811325647	-34.634248570710255	14.188199542546219	-605.0000721216288	
1.7388210629961284E12	128.0	128.0	48.821871140226264	-34.931822411039164	13.8900487291871	-605.0000721216288	
1.7388210630156575E12	128.0	128.0	48.83304999268651	-34.65112503184379	14.181924960842725	-605.0000721216288	
1.7388210630351865E12	128.0	128.0	48.82764087052833	-34.96442138724582	13.863219483282505	-605.0000721216288	
1.7388210630547156E12	128.0	128.0	48.8709138477938	-34.753970474478066	14.116943373315737	-605.0000721216288	
1.7388210630742444E12	128.0	128.0	48.90199826979617	-35.13433994464158	13.767658325154583	-605.0000721216288	
1.7388210630937734E12	128.0	128.0	48.900844323735754	-34.78079972038266	14.120044603353097	-605.0000721216288	
1.7388210631133025E12	128.0	128.0	48.896372782751655	-35.07289231692461	13.823480465827044	-605.0000721216288	
1.7388210631328315E12	128.0	128.0	48.90639768915149	-34.76147112387075	14.144926565280745	-605.0000721216288	
1.7388210631523606E12	128.0	128.0	48.90401767540189	-35.06719470825132	13.836822967150566	-605.0000721216288	
1.7388210631718896E12	128.0	128.0	48.895507323206346	-34.99528944436186	13.900217878844487	-605.0000721216288	
1.7388210631914187E12	128.0	128.0	48.91786502812684	-35.087172399422215	13.830692628704623	-605.0000721216288	
1.7388210632109478E12	128.0	128.0	48.90899406778742	-35.01649320322194	13.892500864565477	-605.0000721216288	
1.7388210632304766E12	128.0	128.0	48.92522143426197	-35.08500875055894	13.840212683703028	-605.0000721216288	
1.7388210632500056E12	128.0	128.0	48.92255293399727	-35.04685640893655	13.875696525060718	-605.0000721216288	
1.7388210632695347E12	128.0	128.0	48.92536567751952	-35.05219340946596	13.873172268053565	-605.0000721216288	
1.7388210632890637E12	128.0	128.0	48.92212020422461	-35.03207147503751	13.8900487291871	-605.0000721216288	
1.7388210633085928E12	128.0	128.0	48.92486082611809	-34.679685196838996	14.245175629279094	-605.0000721216288	
1.7388210633281218E12	128.0	128.0	48.92846690755688	-35.04750550359553	13.88096140396135	-605.0000721216288	
1.738821063347651E12	128.0	128.0	48.93878030047182	-34.732406107474105	14.206374192997718	-605.0000721216288	
1.73882106336718E12	128.0	128.0	48.93856393558549	-35.07527233067421	13.86329160491128	-605.0000721216288	
1.738821063386709E12	128.0	128.0	48.94700216615226	-34.74913832535009	14.197863840802174	-605.0000721216288	
1.7388210634062378E12	128.0	128.0	48.95233916668167	-35.09409607578469	13.858243090896975	-605.0000721216288	
1.7388210634257668E12	128.0	128.0	48.95370947762841	-34.76298567807504	14.190723799553371	-605.0000721216288	
1.738821063445296E12	128.0	128.0	48.96359014077069	-34.52866250618249	14.434927634588199	-605.0000721216288	
1.738821063464825E12	128.0	128.0	48.96092164050599	-34.7526722851601	14.208249355345888	-605.0000721216288	
1.738821063484354E12	128.0	128.0	48.97332656065542	-34.54330319682398	14.430023363831445	-605.0000721216288	
1.738821063503883E12	128.0	128.0	48.97469687160216	-34.790464018638616	14.18423285296355	-605.0000721216288	
1.738821063523412E12	128.0	128.0	48.983207223797706	-34.56436271242651	14.418844511371198	-605.0000721216288	
1.7388210635429412E12	128.0	128.0	48.978230831412176	-34.81145141261237	14.166779418799809	-605.0000721216288	
1.7388210635624702E12	128.0	128.0	48.98746239989548	-34.564074225911405	14.423388173984073	-605.0000721216288	
1.738821063581999E12	128.0	128.0	48.98558723754731	-34.824216940905686	14.161370296641625	-605.0000721216288	
1.738821063601528E12	128.0	128.0	48.998136400954294	-34.576407024432065	14.42172937652223	-605.0000721216288	
1.7388210636210571E12	128.0	128.0	49.00304067171105	-34.72541030948285	14.2776303622282	-605.0000721216288	
1.7388210636405862E12	128.0	128.0	49.00570917197575	-34.5956634993152	14.410045672660551	-605.0000721216288	
1.7388210636601152E12	128.0	128.0	49.01032495621741	-34.7207945252412	14.289530430976205	-605.0000721216288	
1.7388210636796443E12	128.0	128.0	49.014868618830285	-34.60114474310217	14.413723875728117	-605.0000721216288	
1.7388210636991733E12	128.0	128.0	49.020494105874796	-34.726564255543266	14.293929850331528	-605.0000721216288	
1.7388210637187024E12	128.0	128.0	49.018114092125195	-34.59753866166338	14.420575430461817	-605.0000721216288	
1.7388210637382314E12	128.0	128.0	49.02236926822297	-34.72072240361243	14.301646864610538	-605.0000721216288	
1.7388210637577603E12	128.0	128.0	49.028211120153806	-35.094817292072456	13.93339382808135	-605.0000721216288	
1.7388210637772893E12	128.0	128.0	49.03700995886445	-34.74957105512274	14.287438903741707	-605.0000721216288	
1.7388210637968184E12	128.0	128.0	49.03376448556954	-35.08450389915752	13.949260586412024	-605.0000721216288	
1.7388210638163474E12	128.0	128.0	49.04616940571898	-34.73759886474596	14.308570540973014	-605.0000721216288	
1.7388210638358765E12	128.0	128.0	49.0481888113247	-35.09077848086101	13.957410330463688	-605.0000721216288	
1.7388210638554055E12	128.0	128.0	49.056843406777794	-34.74192616247251	14.314917244305283	-605.0000721216288	
1.7388210638749346E12	128.0	128.0	49.060449488216584	-35.11191011809232	13.948539370124266	-605.0000721216288	
1.7388210638944636E12	128.0	128.0	49.053381568596556	-35.22276106152071	13.830620507075848	-605.0000721216288	
1.7388210639139927E12	128.0	128.0	49.0618919207921	-35.0967645760494	13.965127344742697	-605.0000721216288	
1.7388210639335215E12	128.0	128.0	49.06203616404965	-35.23696902238954	13.825067141660112	-605.0000721216288	
1.7388210639530505E12	128.0	128.0	49.069681056699885	-35.09496153533001	13.974719521369877	-605.0000721216288	
1.7388210639725796E12	128.0	128.0	49.054102784884314	-35.200331234971436	13.853771549912876	-605.0000721216288	
1.7388210639921086E12	128.0	128.0	49.06088221798924	-35.053203112268825	14.007679105720415	-605.0000721216288	
1.7388210640116377E12	128.0	128.0	49.05915129889862	-35.21208706046189	13.847064238436728	-605.0000721216288	
1.7388210640311667E12	128.0	128.0	49.07920111169829	-35.07671476324973	14.002486348448558	-605.0000721216288	
1.7388210640506958E12	128.0	128.0	49.070690759502746	-35.230694440686044	13.8399963188167	-605.0000721216288	
1.7388210640702249E12	128.0	128.0	49.06802225923804	-34.976826307395264	14.09119595184278	-605.0000721216288	
1.738821064089754E12	128.0	128.0	49.07884050355441	-35.23934903613914	13.83949146741527	-605.0000721216288	
1.7388210641092827E12	128.0	128.0	49.074657449085414	-34.997380971596364	14.077276477489052	-605.0000721216288	
1.7388210641288118E12	128.0	128.0	49.07523442211562	-35.2451187664412	13.830115655674417	-605.0000721216288	
1.7388210641483408E12	128.0	128.0	49.07198894882071	-35.008992553829266	14.062996394991446	-605.0000721216288	
1.7388210641678699E12	128.0	128.0	49.08872116669669	-35.281540188972976	13.807180977723716	-605.0000721216288	
1.738821064187399E12	128.0	128.0	49.08619690968954	-35.032287839923846	14.053909069765696	-605.0000721216288	
1.738821064206928E12	128.0	128.0	49.094346653741205	-34.713726605621176	14.38062004812003	-605.0000721216288	
1.738821064226457E12	128.0	128.0	49.093986045597326	-35.05226553109474	14.041720514502588	-605.0000721216288	
1.738821064245986E12	128.0	128.0	49.09997214078572	-34.7181260249765	14.381846115809218	-605.0000721216288	
1.7388210642655151E12	128.0	128.0	49.09715939726346	-35.052842504124946	14.044316893138516	-605.0000721216288	
1.738821064285044E12	128.0	128.0	49.10141457336123	-34.73312732376186	14.36828724959937	-605.0000721216288	
1.738821064304573E12	128.0	128.0	49.10862673623881	-35.09496153533001	14.013665200908806	-605.0000721216288	
1.738821064324102E12	128.0	128.0	49.12427712968316	-34.776616665913664	14.347660463769492	-605.0000721216288	
1.738821064343631E12	128.0	128.0	49.12240196733499	-35.10815979339598	14.014242173939012	-605.0000721216288	
1.7388210643631602E12	128.0	128.0	49.132715360249925	-34.78325185576104	14.349463504488886	-605.0000721216288	
1.7388210643826892E12	128.0	128.0	49.139206306839746	-34.75642260985644	14.382783696983303	-605.0000721216288	
1.7388210644022183E12	128.0	128.0	49.142668145020984	-34.79147372144148	14.351194423579505	-605.0000721216288	
1.7388210644217473E12	128.0	128.0	49.14612998320222	-34.74957105512274	14.396558928079479	-605.0000721216288	
1.7388210644412764E12	128.0	128.0	49.146418469717325	-34.80546531742398	14.340953152293343	-605.0000721216288	
1.7388210644608052E12	128.0	128.0	49.14108146918792	-34.72303029573325	14.418051173454664	-605.0000721216288	
1.7388210644803342E12	128.0	128.0	49.152909416307146	-34.81181202075625	14.341097395550895	-605.0000721216288	
1.7388210644998633E12	128.0	128.0	49.156876105889815	-34.751951068872344	14.40492503701747	-605.0000721216288	
1.7388210645193923E12	128.0	128.0	49.165602822971685	-35.084215412642415	14.081387410329272	-605.0000721216288	
1.7388210645389214E12	128.0	128.0	49.16812707997884	-34.7708469356116	14.397280144367237	-605.0000721216288	
1.7388210645584504E12	128.0	128.0	49.16718949880475	-35.06957472200093	14.097614776803825	-605.0000721216288	
1.7388210645779795E12	128.0	128.0	49.18269564899155	-34.78180942318552	14.400886225806026	-605.0000721216288	
1.7388210645975085E12	128.0	128.0	49.17447378331111	-35.07080078969012	14.103672993620991	-605.0000721216288	
1.7388210646170376E12	128.0	128.0	49.18276777062032	-34.756062001712564	14.426705768907759	-605.0000721216288	
1.7388210646365664E12	128.0	128.0	49.18622960880156	-35.06495893775927	14.121270671042286	-605.0000721216288	
1.7388210646560955E12	128.0	128.0	49.19034054164178	-35.36181156180043	13.82852897984135	-605.0000721216288	
1.7388210646756245E12	128.0	128.0	49.20288970504877	-35.073829898098694	14.129059806950071	-605.0000721216288	
1.7388210646951536E12	128.0	128.0	49.197480582890584	-35.35560910172571	13.84187148116487	-605.0000721216288	
1.7388210647146826E12	128.0	128.0	49.20418789436673	-35.07116139783399	14.13302649653274	-605.0000721216288	
1.7388210647342117E12	128.0	128.0	49.200221204784064	-35.35582546661204	13.844395738172024	-605.0000721216288	
1.7388210647537407E12	128.0	128.0	49.21320309796371	-35.072459587151954	14.140743510811749	-605.0000721216288	
1.7388210647732698E12	128.0	128.0	49.21551099008453	-35.37998621225193	13.835524777832601	-605.0000721216288	
1.7388210647927988E12	128.0	128.0	49.23101714027133	-35.0970530625645	14.133964077706825	-605.0000721216288	
1.7388210648123276E12	128.0	128.0	49.22878136977928	-35.39686267338546	13.831918696393812	-605.0000721216288	
1.7388210648318567E12	128.0	128.0	49.21861222012189	-35.284136567608904	13.934475652512987	-605.0000721216288	
1.7388210648513857E12	128.0	128.0	49.230800775385	-35.38539533441011	13.845405440974885	-605.0000721216288	
1.7388210648709148E12	128.0	128.0	49.22272315296211	-35.302960312719385	13.919762840242726	-605.0000721216288	
1.7388210648904438E12	128.0	128.0	49.23404624867991	-35.37039403562475	13.86365221305516	-605.0000721216288	
1.738821064909973E12	128.0	128.0	49.23231532958929	-35.305340326468986	13.926975003120305	-605.0000721216288	
1.738821064929502E12	128.0	128.0	49.25409606147958	-35.409844566565106	13.844251494914472	-605.0000721216288	
1.738821064949031E12	128.0	128.0	49.24399903345097	-35.335342924039715	13.908656109411254	-605.0000721216288	
1.73882106496856E12	128.0	128.0	49.26433733276574	-35.032864812954045	14.231472519811692	-605.0000721216288	
1.7388210649880889E12	128.0	128.0	49.26830402234841	-35.37825529316131	13.8900487291871	-605.0000721216288	
1.738821065007618E12	128.0	128.0	49.27205434704475	-35.02803266382607	14.244021683218682	-605.0000721216288	
1.738821065027147E12	128.0	128.0	49.277319225945384	-35.37587527941171	13.901443946533675	-605.0000721216288	
1.738821065046676E12	128.0	128.0	49.27811256386192	-35.01476228413132	14.263350279730593	-605.0000721216288	
1.738821065066205E12	128.0	128.0	49.26902523863617	-35.348541182105684	13.920484056530483	-605.0000721216288	
1.7388210650857341E12	128.0	128.0	49.27580467174109	-35.0056028372768	14.270201834464293	-605.0000721216288	
1.7388210651052632E12	128.0	128.0	49.28099742901295	-35.376091644298036	13.904905784714913	-605.0000721216288	
1.7388210651247922E12	128.0	128.0	49.280059847838864	-35.026878717765655	14.253181130073207	-605.0000721216288	
1.7388210651443213E12	128.0	128.0	49.28921929469339	-34.8483055649168	14.44091372977659	-605.0000721216288	
1.73882106516385E12	128.0	128.0	49.29325810590483	-35.06120861306293	14.232049492841899	-605.0000721216288	
1.7388210651833792E12	128.0	128.0	49.30508605302406	-34.871528729382604	14.433557323641459	-605.0000721216288	
1.7388210652029082E12	128.0	128.0	49.30133572832772	-35.07498384415911	14.226351884168611	-605.0000721216288	
1.7388210652224373E12	128.0	128.0	49.3109279049549	-34.88292394672918	14.428003958225723	-605.0000721216288	
1.7388210652419663E12	128.0	128.0	49.306744850485906	-35.08414329101363	14.22260155947227	-605.0000721216288	
1.7388210652614954E12	128.0	128.0	49.3109279049549	-34.84931526771966	14.461612637235241	-605.0000721216288	
1.7388210652810244E12	128.0	128.0	49.32152978438494	-35.08075357446117	14.24077620992377	-605.0000721216288	
1.7388210653005535E12	128.0	128.0	49.31828431109003	-34.88681851468307	14.431465796406961	-605.0000721216288	
1.7388210653200825E12	128.0	128.0	49.3243425279072	-35.05825162628312	14.266090901624073	-605.0000721216288	
1.7388210653396113E12	128.0	128.0	49.321674027642494	-34.87506268919262	14.446611338449877	-605.0000721216288	
1.7388210653591404E12	128.0	128.0	49.32838133911864	-35.046423679163894	14.281957659954747	-605.0000721216288	
1.7388210653786694E12	128.0	128.0	49.33285288010274	-34.900305259264144	14.432547620838598	-605.0000721216288	
1.7388210653981985E12	128.0	128.0	49.34475294885075	-35.067483194766425	14.27726975408432	-605.0000721216288	
1.7388210654177275E12	128.0	128.0	49.33335773150417	-35.399747538536495	13.933610192967677	-605.0000721216288	
1.7388210654372566E12	128.0	128.0	49.343599002790334	-35.05947769397231	14.28412130881802	-605.0000721216288	
1.7388210654567856E12	128.0	128.0	49.349080246577294	-35.438981704590525	13.91009854198677	-605.0000721216288	
1.7388210654763147E12	128.0	128.0	49.35564331479589	-35.07289231692461	14.28275099787128	-605.0000721216288	
1.7388210654958435E12	128.0	128.0	49.35636453108365	-35.431264690311515	13.925099840772134	-605.0000721216288	
1.7388210655153726E12	128.0	128.0	49.36437003187776	-35.0678438029103	14.296526228967457	-605.0000721216288	
1.7388210655349016E12	128.0	128.0	49.36357669396123	-35.42520647349435	13.93837022046688	-605.0000721216288	
1.7388210655544307E12	128.0	128.0	49.37071673521003	-35.075344452302986	14.295372282907044	-605.0000721216288	
1.7388210655739597E12	128.0	128.0	49.372375532671875	-35.43068771728131	13.941687815390566	-605.0000721216288	
1.7388210655934888E12	128.0	128.0	49.35874454483325	-35.499780237648515	13.858964307184733	-605.0000721216288	
1.7388210656130178E12	128.0	128.0	49.36725489702879	-35.408474255618366	13.958780641410428	-605.0000721216288	
1.7388210656325469E12	128.0	128.0	49.35672513922753	-35.50093418370893	13.855790955518598	-605.0000721216288	
1.738821065652076E12	128.0	128.0	49.378866479261696	-35.41352276963267	13.965343709629025	-605.0000721216288	
1.7388210656716047E12	128.0	128.0	49.36848096471798	-35.49776083204279	13.870720132675189	-605.0000721216288	
1.7388210656911338E12	128.0	128.0	49.38355438513212	-35.42109554065413	13.962458844477993	-605.0000721216288	
1.7388210657106628E12	128.0	128.0	49.37684707365597	-35.53209072734007	13.844756346315902	-605.0000721216288	
1.738821065730192E12	128.0	128.0	49.38066951998109	-35.2593988489388	14.121270671042286	-605.0000721216288	
1.738821065749721E12	128.0	128.0	49.38369862838967	-35.54795748567074	13.835741142718929	-605.0000721216288	
1.73882106576925E12	128.0	128.0	49.39776234600095	-35.29055539256995	14.107206953431005	-605.0000721216288	
1.738821065788779E12	128.0	128.0	49.39783446762973	-35.56086725722161	13.836967210408117	-605.0000721216288	
1.738821065808308E12	128.0	128.0	49.397401737857074	-35.2883196220779	14.109082115779175	-605.0000721216288	
1.7388210658278372E12	128.0	128.0	49.39898841369014	-35.55430418900301	13.844684224687127	-605.0000721216288	
1.738821065847366E12	128.0	128.0	49.389324115434185	-35.2659619171574	14.123362198276784	-605.0000721216288	
1.738821065866895E12	128.0	128.0	49.39985387323545	-34.97675418576648	14.42309968746897	-605.0000721216288	
1.738821065886424E12	128.0	128.0	49.393795656418284	-35.29805604196263	14.095739614455654	-605.0000721216288	
1.7388210659059531E12	128.0	128.0	49.405407238651186	-34.98966395731735	14.415743281333839	-605.0000721216288	
1.7388210659254822E12	128.0	128.0	49.405767846795065	-35.30577305624164	14.099994790553426	-605.0000721216288	
1.7388210659450112E12	128.0	128.0	49.41600911808123	-35.0148344057601	14.40117471232113	-605.0000721216288	
1.7388210659645403E12	128.0	128.0	49.390694426380925	-35.27548197215581	14.115212454225118	-605.0000721216288	
1.7388210659840693E12	128.0	128.0	49.400647211151984	-34.972571131297485	14.428076079854499	-605.0000721216288	
1.7388210660035984E12	128.0	128.0	49.40158479232607	-35.322505274117624	14.079079518208447	-605.0000721216288	
1.7388210660231272E12	128.0	128.0	49.40317146815914	-34.98721182193897	14.415959646220166	-605.0000721216288	
1.7388210660426562E12	128.0	128.0	49.420336415807775	-35.04065394886183	14.379682466945944	-605.0000721216288	
1.7388210660621853E12	128.0	128.0	49.41925459137614	-35.019161703486645	14.400092887889492	-605.0000721216288	
1.7388210660817144E12	128.0	128.0	49.41478305039204	-35.009569526859465	14.405213523532574	-605.0000721216288	
1.7388210661012434E12	128.0	128.0	49.421346118610636	-35.023272636326865	14.39807348228377	-605.0000721216288	
1.7388210661207725E12	128.0	128.0	49.43389528201762	-35.03798544859713	14.395909833420497	-605.0000721216288	
1.7388210661403015E12	128.0	128.0	49.43238072781333	-35.05399645018535	14.37838427762798	-605.0000721216288	
1.7388210661598306E12	128.0	128.0	49.43497710644926	-35.03913939465754	14.395837711791721	-605.0000721216288	
1.7388210661793596E12	128.0	128.0	49.43800621485784	-35.38921778073523	14.048788434122615	-605.0000721216288	
1.7388210661988884E12	128.0	128.0	49.44182866118296	-35.0446206384445	14.397208022738461	-605.0000721216288	
1.7388210662184175E12	128.0	128.0	49.443775945159906	-35.36808614350392	14.075689801655985	-605.0000721216288	
1.7388210662379465E12	128.0	128.0	49.450122648492176	-35.05854011279823	14.39158253569395	-605.0000721216288	
1.7388210662574756E12	128.0	128.0	49.44730990496992	-35.35798911547531	14.089320789494609	-605.0000721216288	
1.7388210662770046E12	128.0	128.0	49.44709354008359	-35.03214359666629	14.414949943417305	-605.0000721216288	
1.7388210662965337E12	128.0	128.0	49.45394509481729	-35.37241344123047	14.081531653586824	-605.0000721216288	
1.7388210663160627E12	128.0	128.0	49.453728729930965	-35.05363584204147	14.400092887889492	-605.0000721216288	
1.7388210663355918E12	128.0	128.0	49.46000331163446	-35.38359229369072	14.076411017943743	-605.0000721216288	
1.7388210663551208E12	128.0	128.0	49.45329600015831	-35.62080033073429	13.832495669424018	-605.0000721216288	
1.7388210663746497E12	128.0	128.0	49.465917285194074	-35.38085167179724	14.085065613396837	-605.0000721216288	
1.7388210663941787E12	128.0	128.0	49.4640421228459	-35.634791926716794	13.829250196129108	-605.0000721216288	
1.7388210664137078E12	128.0	128.0	49.47587006996513	-35.378688022933964	14.09718204703117	-605.0000721216288	
1.7388210664332368E12	128.0	128.0	49.46836942057245	-35.63147433179311	13.836895088779341	-605.0000721216288	
1.7388210664527659E12	128.0	128.0	49.47666340788167	-35.3484690604769	14.128194347404762	-605.0000721216288	
1.738821066472295E12	128.0	128.0	49.47644704299534	-35.62144942539327	13.854997617602065	-605.0000721216288	
1.738821066491824E12	128.0	128.0	49.47940402977515	-35.498914778103206	13.98048925167194	-605.0000721216288	
1.738821066511353E12	128.0	128.0	49.48805862522824	-35.63861437304191	13.849444252186329	-605.0000721216288	
1.738821066530882E12	128.0	128.0	49.487986503599465	-35.510598481964884	13.977388021634582	-605.0000721216288	
1.738821066550411E12	128.0	128.0	49.49476593670439	-35.647124725237454	13.847641211466934	-605.0000721216288	
1.73882106656994E12	128.0	128.0	49.48863559825845	-35.494659602005434	13.993975996253015	-605.0000721216288	
1.738821066589469E12	128.0	128.0	49.50298780238483	-35.662198145651594	13.840789656733234	-605.0000721216288	
1.738821066608998E12	128.0	128.0	49.495703517878475	-35.52076763162227	13.974935886256205	-605.0000721216288	
1.738821066628527E12	128.0	128.0	49.50414174844524	-35.183599017095446	14.320542731349795	-605.0000721216288	
1.7388210666480562E12	128.0	128.0	49.50197809958197	-35.52682584843944	13.975152251142532	-605.0000721216288	
1.7388210666675852E12	128.0	128.0	49.51135391132283	-35.20869734390943	14.302656567413399	-605.0000721216288	
1.7388210666871143E12	128.0	128.0	49.50147324818054	-35.54651505309523	13.954958195085311	-605.0000721216288	
1.7388210667066433E12	128.0	128.0	49.51171451946671	-35.20595672201595	14.305757797450758	-605.0000721216288	
1.738821066726172E12	128.0	128.0	49.52347034495716	-35.586254070550694	13.937216274406467	-605.0000721216288	
1.7388210667457012E12	128.0	128.0	49.512075127610586	-35.1968693967902	14.315205730820386	-605.0000721216288	
1.7388210667652302E12	128.0	128.0	49.51863819582918	-35.57622916415086	13.942409031678324	-605.0000721216288	
1.7388210667847593E12	128.0	128.0	49.535226170447615	-35.26444736295311	14.2707788074945	-605.0000721216288	
1.7388210668042883E12	128.0	128.0	49.54128438726478	-35.12330533543889	14.417979051825888	-605.0000721216288	
1.7388210668238174E12	128.0	128.0	49.5364522381368	-35.267837079505576	14.268615158631226	-605.0000721216288	
1.7388210668433464E12	128.0	128.0	49.539697711431714	-35.090201507830805	14.449496203600908	-605.0000721216288	
1.7388210668628755E12	128.0	128.0	49.53327888647067	-35.25831702450717	14.274961861963495	-605.0000721216288	
1.7388210668824045E12	128.0	128.0	49.54279894146907	-35.09871186002635	14.444087081442724	-605.0000721216288	
1.7388210669019333E12	128.0	128.0	49.543448036128055	-35.274544390981724	14.26890364514633	-605.0000721216288	
1.7388210669214624E12	128.0	128.0	49.55325657764156	-35.116742267220296	14.436514310421266	-605.0000721216288	
1.7388210669409915E12	128.0	128.0	49.560252375632814	-35.351570290514275	14.208682085118543	-605.0000721216288	
1.7388210669605205E12	128.0	128.0	49.57482094464552	-35.16535224501518	14.409468699630345	-605.0000721216288	
1.7388210669800496E12	128.0	128.0	49.58210522915188	-35.405156660694686	14.176948568457195	-605.0000721216288	
1.7388210669995786E12	128.0	128.0	49.59299559509702	-35.17667534073298	14.416320254364045	-605.0000721216288	
1.7388210670191077E12	128.0	128.0	49.59494287907397	-35.388063834674824	14.206879044399148	-605.0000721216288	
1.7388210670386367E12	128.0	128.0	49.60027987960338	-35.18215658451994	14.41812329508344	-605.0000721216288	
1.7388210670581658E12	128.0	128.0	49.60280413661053	-35.38251046925909	14.220293667351445	-605.0000721216288	
1.7388210670776946E12	128.0	128.0	49.60554475850401	-35.18244507103504	14.42309968746897	-605.0000721216288	
1.7388210670972236E12	128.0	128.0	49.60994417785933	-35.381356523198676	14.228587654660661	-605.0000721216288	
1.7388210671167527E12	128.0	128.0	49.61066539414709	-35.719679083785906	13.890986310361185	-605.0000721216288	
1.7388210671362817E12	128.0	128.0	49.625161841531025	-35.411359120769404	14.213802720761624	-605.0000721216288	
1.7388210671558108E12	128.0	128.0	49.61528117838874	-35.71412571837017	13.901155460018572	-605.0000721216288	
1.7388210671753398E12	128.0	128.0	49.6228539494102	-35.36801402187515	14.25483992753505	-605.0000721216288	
1.738821067194869E12	128.0	128.0	49.62682063899287	-35.722780313823264	13.904040325169603	-605.0000721216288	
1.738821067214398E12	128.0	128.0	49.630138233916554	-35.34926239839344	14.28087583552311	-605.0000721216288	
1.738821067233927E12	128.0	128.0	49.622421219637545	-35.69097467553314	13.931446544104404	-605.0000721216288	
1.7388210672534558E12	128.0	128.0	49.61946423285774	-35.728766409011655	13.890697823846082	-605.0000721216288	
1.7388210672729849E12	128.0	128.0	49.628767922969814	-35.71297177230976	13.915796150660057	-605.0000721216288	
1.738821067292514E12	128.0	128.0	49.627037003879195	-35.75905749309749	13.867979510781707	-605.0000721216288	
1.738821067312043E12	128.0	128.0	49.63742251842291	-35.71088024507526	13.92654227334765	-605.0000721216288	
1.738821067331572E12	128.0	128.0	49.63670130213515	-35.77954003566981	13.857161266465338	-605.0000721216288	
1.738821067351101E12	128.0	128.0	49.63634069399127	-35.695374094888464	13.940966599102808	-605.0000721216288	
1.7388210673706301E12	128.0	128.0	49.63756676168046	-35.76994785904263	13.867618902637828	-605.0000721216288	
1.7388210673901592E12	128.0	128.0	49.64499528944437	-35.452612692429156	14.192382597015214	-605.0000721216288	
1.7388210674096882E12	128.0	128.0	49.64427407315661	-35.7760060758598	13.86826799729681	-605.0000721216288	
1.738821067429217E12	128.0	128.0	49.63468189652943	-35.423187067888634	14.211494828640799	-605.0000721216288	
1.738821067448746E12	128.0	128.0	49.64420195152783	-35.7742030351404	13.86999891638743	-605.0000721216288	
1.7388210674682751E12	128.0	128.0	49.65610202027584	-35.49343353431625	14.162668485959589	-605.0000721216288	
1.7388210674878042E12	128.0	128.0	49.66417964269873	-35.80896566021033	13.855213982488392	-605.0000721216288	
1.7388210675073333E12	128.0	128.0	49.66208811546423	-35.511536063138976	14.150552052325256	-605.0000721216288	
1.7388210675268623E12	128.0	128.0	49.663025696638314	-35.79374799653864	13.869277700099673	-605.0000721216288	
1.7388210675463914E12	128.0	128.0	49.669372399970584	-35.5230755237431	14.146296876227485	-605.0000721216288	
1.7388210675659204E12	128.0	128.0	49.67103119743243	-35.22954049462563	14.441490702806796	-605.0000721216288	
1.7388210675854495E12	128.0	128.0	49.67571910330285	-35.54536110703482	14.130357996268035	-605.0000721216288	
1.7388210676049783E12	128.0	128.0	49.67665668447694	-35.26213947083229	14.41451721364465	-605.0000721216288	
1.7388210676245073E12	128.0	128.0	49.6848064285286	-35.568584271500626	14.116222157027979	-605.0000721216288	
1.7388210676440364E12	128.0	128.0	49.68826826670984	-35.26653889018761	14.42172937652223	-605.0000721216288	
1.7388210676635654E12	128.0	128.0	49.68776341530841	-35.55531389180588	14.132449523502533	-605.0000721216288	
1.7388210676830945E12	128.0	128.0	49.68891736136882	-35.255864889128794	14.433052472240028	-605.0000721216288	
1.7388210677026235E12	128.0	128.0	49.70211561943479	-35.34673814138629	14.355377478048501	-605.0000721216288	
1.7388210677221526E12	128.0	128.0	49.69894226776866	-35.25305214560654	14.445890122162119	-605.0000721216288	
1.7388210677416816E12	128.0	128.0	49.704279268298066	-35.35149816888549	14.352781099412573	-605.0000721216288	
1.7388210677612107E12	128.0	128.0	49.702908957351326	-35.27750137776153	14.425407579589795	-605.0000721216288	
1.7388210677807395E12	128.0	128.0	49.70903929579727	-35.341833870629536	14.367205425167732	-605.0000721216288	
1.7388210678002686E12	128.0	128.0	49.70629867390379	-35.27757349939031	14.428725174513481	-605.0000721216288	
1.7388210678197976E12	128.0	128.0	49.71278962049361	-35.34089628945545	14.371893331038159	-605.0000721216288	
1.7388210678393267E12	128.0	128.0	49.713871444925246	-35.70042260890277	14.013448836022478	-605.0000721216288	
1.7388210678588557E12	128.0	128.0	49.715241755871986	-35.340968411084226	14.37427334478776	-605.0000721216288	
1.7388210678783848E12	128.0	128.0	49.71978541848486	-35.703091109167474	14.016694309317389	-605.0000721216288	
1.7388210678979138E12	128.0	128.0	49.72238179712079	-35.35459939892285	14.367782398197939	-605.0000721216288	
1.7388210679174429E12	128.0	128.0	49.724689689241615	-35.70864447458321	14.016045214658407	-605.0000721216288	
1.7388210679369717E12	128.0	128.0	49.72440120272651	-35.34190599225831	14.3824952104682	-605.0000721216288	
1.7388210679565007E12	128.0	128.0	49.695047699814765	-35.608323288956086	14.08672441085868	-605.0000721216288	
1.7388210679760298E12	128.0	128.0	49.66771360250874	-35.175016543271134	14.492697059237608	-605.0000721216288	
1.7388210679955588E12	128.0	128.0	49.66136689917647	-35.5317301191962	14.129636779980277	-605.0000721216288	
1.738821068015088E12	128.0	128.0	49.65783293936646	-35.74131557241864	13.916517366947815	-605.0000721216288	
1.738821068034617E12	128.0	128.0	49.667280872736086	-35.57860917790046	14.088671694835627	-605.0000721216288	
1.738821068054146E12	128.0	128.0	49.66706450784976	-35.81004748464197	13.857017023207787	-605.0000721216288	
1.738821068073675E12	128.0	128.0	49.731036392573884	-35.750330776015616	13.980705616558268	-605.0000721216288	
1.738821068093204E12	128.0	128.0	49.716107215417296	-35.907411683489286	13.808695531928008	-605.0000721216288	
1.738821068112733E12	128.0	128.0	49.72670909484734	-35.694869243487034	14.031839851360305	-605.0000721216288	
1.738821068132262E12	128.0	128.0	49.723319378294875	-35.904887426482134	13.81843195181274	-605.0000721216288	
1.738821068151791E12	128.0	128.0	49.71726116147771	-35.696239554433774	14.021021607043936	-605.0000721216288	
1.73882106817132E12	128.0	128.0	49.72613212181713	-35.88750611394717	13.83862600786996	-605.0000721216288	
1.738821068190849E12	128.0	128.0	49.721949067348135	-35.67467518742981	14.047273879918324	-605.0000721216288	
1.7388210682103782E12	128.0	128.0	49.7345703523839	-35.892698871219025	13.84187148116487	-605.0000721216288	
1.7388210682299072E12	128.0	128.0	49.72678121647611	-35.69530197325969	14.031479243216426	-605.0000721216288	
1.7388210682494363E12	128.0	128.0	49.74106129897372	-35.903300750649066	13.83776054832465	-605.0000721216288	
1.7388210682689653E12	128.0	128.0	49.73918613662555	-35.723790016626126	14.015396119999425	-605.0000721216288	
1.7388210682884941E12	128.0	128.0	49.75137469188866	-35.910873521670524	13.84050117021813	-605.0000721216288	
1.7388210683080232E12	128.0	128.0	49.74733588067721	-35.740738599388436	14.006597281288778	-605.0000721216288	
1.7388210683275522E12	128.0	128.0	49.75440380029724	-35.39657418687036	14.357829613426878	-605.0000721216288	
1.7388210683470813E12	128.0	128.0	49.749355286282935	-35.752927154651545	13.996428131631392	-605.0000721216288	
1.7388210683666104E12	128.0	128.0	49.74863406999518	-35.39073233493952	14.357901735055654	-605.0000721216288	
1.7388210683861394E12	128.0	128.0	49.74964377279804	-35.74088284264599	14.008760930152052	-605.0000721216288	
1.7388210684056685E12	128.0	128.0	49.74776861044987	-35.37400011706354	14.37376849338633	-605.0000721216288	
1.7388210684251975E12	128.0	128.0	49.76060626037196	-35.766990872262824	13.993615388109136	-605.0000721216288	
1.7388210684447266E12	128.0	128.0	49.763202639007886	-35.40205543065732	14.361147208350564	-605.0000721216288	
1.7388210684642554E12	128.0	128.0	49.769044490938725	-35.33317927517644	14.435865215762284	-605.0000721216288	
1.7388210684837844E12	128.0	128.0	49.773516031922824	-35.42102341902535	14.35249261289747	-605.0000721216288	
1.7388210685033135E12	128.0	128.0	49.778997275709784	-35.33801142430442	14.440985851405365	-605.0000721216288	
1.7388210685228425E12	128.0	128.0	49.769405099082604	-35.429894379364775	14.339510719717827	-605.0000721216288	
1.7388210685423716E12	128.0	128.0	49.780511829914076	-35.35856608850552	14.421945741408557	-605.0000721216288	
1.7388210685619006E12	128.0	128.0	49.785488222299605	-35.46155577439735	14.323932447902257	-605.0000721216288	
1.7388210685814297E12	128.0	128.0	49.79306099332106	-35.36505703509534	14.428003958225723	-605.0000721216288	
1.7388210686009587E12	128.0	128.0	49.79796526407782	-35.65130777970646	14.146657484371364	-605.0000721216288	
1.7388210686204878E12	128.0	128.0	49.78830096582186	-35.34572843858343	14.442572527238433	-605.0000721216288	
1.7388210686400166E12	128.0	128.0	49.79897496688068	-35.651019293191354	14.147955673689328	-605.0000721216288	
1.7388210686595457E12	128.0	128.0	49.79277250680596	-35.35019997956753	14.442572527238433	-605.0000721216288	
1.7388210686790747E12	128.0	128.0	49.79464766915413	-35.648278671297874	14.14636899785626	-605.0000721216288	
1.7388210686986038E12	128.0	128.0	49.79746041267639	-35.35423879077897	14.443221621897415	-605.0000721216288	
1.7388210687181328E12	128.0	128.0	49.8057543999856	-35.64625926569215	14.159495134293454	-605.0000721216288	
1.7388210687376619E12	128.0	128.0	49.80135498063028	-35.36202792668676	14.439327053943522	-605.0000721216288	
1.738821068757191E12	128.0	128.0	49.8099374544546	-35.63911922444335	14.170818230011253	-605.0000721216288	
1.73882106877672E12	128.0	128.0	49.80561015672805	-35.93041848306876	13.875191673659288	-605.0000721216288	
1.738821068796249E12	128.0	128.0	49.82190964483138	-35.64366288705622	14.17824675777516	-605.0000721216288	
1.7388210688157778E12	128.0	128.0	49.81073079237113	-35.94080399761248	13.869926794758655	-605.0000721216288	
1.738821068835307E12	128.0	128.0	49.8286890779363	-35.634719805088025	14.193969272848282	-605.0000721216288	
1.738821068854836E12	128.0	128.0	49.82349632066445	-35.959844107609285	13.86365221305516	-605.0000721216288	
1.738821068874365E12	128.0	128.0	49.834314564980815	-35.64474471148786	14.189569853492959	-605.0000721216288	
1.738821068893894E12	128.0	128.0	49.821116306914845	-35.92825483420549	13.892861472709356	-605.0000721216288	
1.738821068913423E12	128.0	128.0	49.8167890091883	-35.88159214038755	13.935196868800745	-605.0000721216288	
1.7388210689329521E12	128.0	128.0	49.820972063657294	-35.91491233288197	13.906059730775326	-605.0000721216288	
1.7388210689524812E12	128.0	128.0	49.81606779290054	-35.87308178819201	13.94298600470853	-605.0000721216288	
1.7388210689720103E12	128.0	128.0	49.858114702476826	-36.00297284161721	13.855141860859616	-605.0000721216288	
1.738821068991539E12	128.0	128.0	49.85357103986395	-35.959699864351734	13.893871175512217	-605.0000721216288	
1.738821069011068E12	128.0	128.0	49.86316321649113	-35.99814069248923	13.8650225240019	-605.0000721216288	
1.7388210690305972E12	128.0	128.0	49.86157654065806	-35.962584729502765	13.898991811155298	-605.0000721216288	
1.7388210690501262E12	128.0	128.0	49.868067487247885	-35.62491126357451	14.243156223673372	-605.0000721216288	
1.7388210690696553E12	128.0	128.0	49.876649961072204	-36.00189101718557	13.874758943886633	-605.0000721216288	
1.7388210690891843E12	128.0	128.0	49.86186502717317	-35.61495847880345	14.246906548369713	-605.0000721216288	
1.7388210691087134E12	128.0	128.0	49.855374080583346	-35.93813549734777	13.917238583235573	-605.0000721216288	
1.7388210691282424E12	128.0	128.0	49.86366806789256	-35.6103426945618	14.253325373330759	-605.0000721216288	
1.7388210691477715E12	128.0	128.0	49.868211730505436	-35.982995150446314	13.885216580059122	-605.0000721216288	
1.7388210691673003E12	128.0	128.0	49.86424504092277	-35.61892516838612	14.245319872536646	-605.0000721216288	
1.7388210691868293E12	128.0	128.0	49.876072988042	-35.99338066499003	13.88269232305197	-605.0000721216288	
1.7388210692063584E12	128.0	128.0	49.870808109141365	-35.64366288705622	14.227145222085145	-605.0000721216288	
1.7388210692258875E12	128.0	128.0	49.88155423182896	-35.429533771220896	14.452020460608061	-605.0000721216288	
1.7388210692454165E12	128.0	128.0	49.88061665065487	-35.66818424083999	14.212432409814884	-605.0000721216288	
1.7388210692649456E12	128.0	128.0	49.88869427307776	-35.45109813822486	14.437596134852903	-605.0000721216288	
1.7388210692844746E12	128.0	128.0	49.88104938042753	-35.68123825564841	14.19981112477912	-605.0000721216288	
1.7388210693040037E12	128.0	128.0	49.88660274584326	-35.429533771220896	14.457068974622366	-605.0000721216288	
1.7388210693235327E12	128.0	128.0	49.88386212394978	-35.67655034977798	14.207311774171803	-605.0000721216288	
1.7388210693430615E12	128.0	128.0	49.89554582781146	-35.45261269242915	14.442933135382312	-605.0000721216288	
1.7388210693625906E12	128.0	128.0	49.90261374743149	-35.6100542080467	14.292559539384788	-605.0000721216288	
1.7388210693821196E12	128.0	128.0	49.90001736879556	-35.43205802822805	14.46795934056751	-605.0000721216288	
1.7388210694016487E12	128.0	128.0	49.91025864008172	-35.604645085888514	14.305613554193206	-605.0000721216288	
1.7388210694211777E12	128.0	128.0	49.90218101765883	-35.436745934098475	14.465435083560358	-605.0000721216288	
1.7388210694407068E12	128.0	128.0	49.91494654595215	-35.606015396835254	14.308931149116892	-605.0000721216288	
1.7388210694602358E12	128.0	128.0	49.91249441057377	-35.47165280242596	14.440841608147814	-605.0000721216288	
1.738821069479765E12	128.0	128.0	49.91451381617949	-35.609909964789146	14.304603851390345	-605.0000721216288	
1.738821069499294E12	128.0	128.0	49.91674958667154	-35.47720616784169	14.43954341882985	-605.0000721216288	
1.7388210695188228E12	128.0	128.0	49.92381750629157	-35.59945232861666	14.324365177674911	-605.0000721216288	
1.7388210695383518E12	128.0	128.0	49.91711019481542	-35.93936156503696	13.97774862977846	-605.0000721216288	
1.7388210695578809E12	128.0	128.0	49.9240338711779	-35.60313053168422	14.320903339493674	-605.0000721216288	
1.73882106957741E12	128.0	128.0	49.921149006026866	-35.95082890401231	13.970320102014554	-605.0000721216288	
1.738821069596939E12	128.0	128.0	49.923240533261364	-35.594836544375006	14.328403988886356	-605.0000721216288	
1.738821069616468E12	128.0	128.0	49.92129324928442	-35.93323122659102	13.988062022693398	-605.0000721216288	
1.738821069635997E12	128.0	128.0	49.93218361522956	-35.59577412554909	14.336409489680468	-605.0000721216288	
1.7388210696555261E12	128.0	128.0	49.92915450682098	-35.934168807765104	13.994985699055876	-605.0000721216288	
1.7388210696750552E12	128.0	128.0	49.91804777598951	-36.05316949524516	13.864878280744348	-605.0000721216288	
1.738821069694584E12	128.0	128.0	49.93189512871446	-35.94296764647575	13.988927482238708	-605.0000721216288	
1.738821069714113E12	128.0	128.0	49.928866020305875	-36.07365203781748	13.855213982488392	-605.0000721216288	
1.738821069733642E12	128.0	128.0	49.94451641375022	-35.963089580904196	13.981426832846026	-605.0000721216288	
1.7388210697531711E12	128.0	128.0	49.941559426970414	-36.089374552890604	13.852184874079809	-605.0000721216288	
1.7388210697727002E12	128.0	128.0	49.95980619905069	-35.97376358196301	13.986042617087676	-605.0000721216288	
1.7388210697922292E12	128.0	128.0	49.94768976541636	-36.08757151217121	13.860118253245146	-605.0000721216288	
1.7388210698117583E12	128.0	128.0	49.94509338678043	-35.83211670304736	14.112976683733068	-605.0000721216288	
1.7388210698312874E12	128.0	128.0	49.950790995453715	-36.09889460788901	13.851896387564706	-605.0000721216288	
1.7388210698508164E12	128.0	128.0	49.94127094045531	-35.82165906687487	14.119611873580443	-605.0000721216288	
1.7388210698703452E12	128.0	128.0	49.947184914014926	-36.08785999868631	13.859324915328612	-605.0000721216288	
1.7388210698898743E12	128.0	128.0	49.94610308958329	-35.83572278448615	14.11038030509714	-605.0000721216288	
1.7388210699094033E12	128.0	128.0	49.95006977916596	-36.09521640482144	13.854853374344513	-605.0000721216288	
1.7388210699289324E12	128.0	128.0	49.95237767128678	-35.84949801558233	14.102879655704458	-605.0000721216288	
1.7388210699484614E12	128.0	128.0	49.95482980666516	-36.099471580919214	13.855358225745944	-605.0000721216288	
1.7388210699679905E12	128.0	128.0	49.933842412691405	-35.80694625460461	14.126896158086797	-605.0000721216288	
1.7388210699875195E12	128.0	128.0	49.93701576435754	-35.49184685848318	14.445168905874361	-605.0000721216288	
1.7388210700070486E12	128.0	128.0	49.933481804547526	-35.80521533551399	14.128266469033537	-605.0000721216288	
1.7388210700265776E12	128.0	128.0	49.93874668344816	-35.47590797852373	14.46283870492443	-605.0000721216288	
1.7388210700461064E12	128.0	128.0	49.936222426441006	-35.84654102880252	14.089681397638488	-605.0000721216288	
1.7388210700656355E12	128.0	128.0	49.944444292121446	-35.53093678127966	14.41350751084179	-605.0000721216288	
1.7388210700851646E12	128.0	128.0	49.9332654396612	-35.83968947406882	14.09357596559238	-605.0000721216288	
1.7388210701046936E12	128.0	128.0	49.9401169943949	-35.51030999544978	14.429806998945118	-605.0000721216288	
1.7388210701242227E12	128.0	128.0	49.94920431962065	-35.5391586469601	14.410045672660551	-605.0000721216288	
1.7388210701437517E12	128.0	128.0	49.94826673844656	-35.54096168767949	14.407305050767071	-605.0000721216288	
1.7388210701632808E12	128.0	128.0	49.947184914014926	-35.520334901849616	14.42685001216531	-605.0000721216288	
1.7388210701828098E12	128.0	128.0	49.948050373560235	-35.56346363585754	14.384586737702698	-605.0000721216288	
1.7388210702023386E12	128.0	128.0	49.95995044230824	-35.54146653908092	14.418483903227319	-605.0000721216288	
1.7388210702218677E12	128.0	128.0	49.95641648249823	-35.55726117578282	14.399155306715407	-605.0000721216288	
1.7388210702413967E12	128.0	128.0	49.963123793974376	-35.54882294521605	14.414300848758323	-605.0000721216288	
1.7388210702609258E12	128.0	128.0	49.963989253519685	-35.578609177900454	14.385380075619231	-605.0000721216288	
1.7388210702804548E12	128.0	128.0	49.967234726814596	-35.54593808006502	14.421296646749575	-605.0000721216288	
1.738821070299984E12	128.0	128.0	49.97588932226769	-35.90344499390662	14.072444328361074	-605.0000721216288	
1.738821070319513E12	128.0	128.0	49.978052971130964	-35.56166059513814	14.416392375992821	-605.0000721216288	
1.738821070339042E12	128.0	128.0	49.978197214388516	-35.88051031595592	14.0976868984326	-605.0000721216288	
1.738821070358571E12	128.0	128.0	49.985409377266095	-35.57146913665165	14.413940240614444	-605.0000721216288	
1.7388210703780999E12	128.0	128.0	49.97653841692667	-35.8585132191793	14.118025197747375	-605.0000721216288	
1.738821070397629E12	128.0	128.0	49.980432984880565	-35.54644293146645	14.433990053414114	-605.0000721216288	
1.738821070417158E12	128.0	128.0	49.98670756658406	-35.88541458671267	14.10129297987139	-605.0000721216288	
1.738821070436687E12	128.0	128.0	49.982812998630166	-36.126517191710136	13.856295806920029	-605.0000721216288	
1.738821070456216E12	128.0	128.0	49.99096274268183	-35.86348961156483	14.127473131117004	-605.0000721216288	
1.738821070475745E12	128.0	128.0	49.994136094347965	-36.13142146246689	13.862714631881074	-605.0000721216288	
1.7388210704952742E12	128.0	128.0	49.99831914881696	-35.87308178819201	14.125237360624954	-605.0000721216288	
1.7388210705148032E12	128.0	128.0	49.98649120169773	-36.12630082682381	13.860190374873921	-605.0000721216288	
1.7388210705343323E12	128.0	128.0	49.99846339207451	-35.879500613153056	14.11896277892146	-605.0000721216288	
1.738821070553861E12	128.0	128.0	49.99889612184717	-36.15175976178166	13.847136360065504	-605.0000721216288	
1.7388210705733901E12	128.0	128.0	49.99269366177245	-36.00600195002579	13.986691711746658	-605.0000721216288	
1.7388210705929192E12	128.0	128.0	50.00423312237658	-36.162433762840486	13.841799359536095	-605.0000721216288	
1.7388210706124482E12	128.0	128.0	49.99709308112777	-36.022662046273	13.974431034854774	-605.0000721216288	
1.7388210706319773E12	128.0	128.0	50.00170886536942	-36.139426963261	13.86228190210842	-605.0000721216288	
1.7388210706515063E12	128.0	128.0	49.99334275643143	-36.005424976995585	13.987917779435847	-605.0000721216288	
1.7388210706710354E12	128.0	128.0	50.01267135294335	-36.152192491554324	13.860478861389025	-605.0000721216288	
1.7388210706905645E12	128.0	128.0	50.004882217035565	-36.027999046802414	13.976883170233151	-605.0000721216288	
1.7388210707100935E12	128.0	128.0	50.007622838929045	-36.14346577447245	13.86415706445659	-605.0000721216288	
1.7388210707296223E12	128.0	128.0	49.99896824347594	-36.02518630328015	13.973781940195792	-605.0000721216288	
1.7388210707491514E12	128.0	128.0	50.003511906088825	-35.684555850572096	14.318956055516727	-605.0000721216288	
1.7388210707686804E12	128.0	128.0	50.00920951476211	-36.05223191407108	13.956977600691033	-605.0000721216288	
1.7388210707882095E12	128.0	128.0	50.016854407412346	-35.714558448142824	14.30229595926952	-605.0000721216288	
1.7388210708077385E12	128.0	128.0	50.02038836722236	-36.07357991618871	13.946808451033647	-605.0000721216288	
1.7388210708272676E12	128.0	128.0	50.025797489380544	-35.7280451927239	14.297752296656645	-605.0000721216288	
1.7388210708467966E12	128.0	128.0	50.02558112449422	-36.082811484672014	13.942769639822203	-605.0000721216288	
1.7388210708663257E12	128.0	128.0	50.0283217463877	-35.737348882835974	14.29097286355172	-605.0000721216288	
1.7388210708858547E12	128.0	128.0	50.03322601714445	-35.574786731575344	14.458439285569106	-605.0000721216288	
1.7388210709053835E12	128.0	128.0	50.03423571994731	-35.73893555866904	14.295300161278268	-605.0000721216288	
1.7388210709249126E12	128.0	128.0	50.045991545437765	-35.58553285426294	14.460458691174829	-605.0000721216288	
1.7388210709444417E12	128.0	128.0	50.04166424771122	-35.75920173635504	14.282462511356178	-605.0000721216288	
1.7388210709639707E12	128.0	128.0	50.06532014194968	-35.64171560307928	14.4236045388704	-605.0000721216288	
1.7388210709834998E12	128.0	128.0	50.067051061040296	-35.81942329638282	14.247627764657471	-605.0000721216288	
1.7388210710030288E12	128.0	128.0	50.07606626463727	-35.644816833116636	14.431249431520634	-605.0000721216288	
1.7388210710225579E12	128.0	128.0	50.085369954749346	-35.893708574021886	14.191661380727457	-605.0000721216288	
1.738821071042087E12	128.0	128.0	50.07722021069768	-35.630248264103926	14.446971946593756	-605.0000721216288	
1.738821071061616E12	128.0	128.0	50.081259021909126	-35.85541198914194	14.22584703276718	-605.0000721216288	
1.7388210710811448E12	128.0	128.0	50.07772506209911	-35.62029547933287	14.457429582766245	-605.0000721216288	
1.7388210711006738E12	128.0	128.0	50.0813311435379	-35.837381581947994	14.243949561589906	-605.0000721216288	
1.738821071120203E12	128.0	128.0	50.0810426570228	-35.62303610122635	14.458006555796452	-605.0000721216288	
1.738821071139732E12	128.0	128.0	50.08688450895364	-35.84856043440824	14.238324074545393	-605.0000721216288	
1.738821071159261E12	128.0	128.0	50.08940876596079	-35.644311981715205	14.445096784245585	-605.0000721216288	
1.73882107117879E12	128.0	128.0	50.099938523762056	-35.863056881792176	14.236881641969877	-605.0000721216288	
1.738821071198319E12	128.0	128.0	50.088831792930584	-36.184214494730774	13.90461729819981	-605.0000721216288	
1.7388210712178481E12	128.0	128.0	50.09452940160387	-35.82988093255531	14.264648469048558	-605.0000721216288	
1.7388210712373772E12	128.0	128.0	50.08544207637812	-36.1543561404176	13.931085935960525	-605.0000721216288	
1.738821071256906E12	128.0	128.0	50.101164591451244	-35.844233136681694	14.256931454769548	-605.0000721216288	
1.738821071276435E12	128.0	128.0	50.093808185316114	-36.16575135776417	13.928056827551941	-605.0000721216288	
1.738821071295964E12	128.0	128.0	50.11804105258478	-35.87228845027548	14.2457526023093	-605.0000721216288	
1.7388210713154932E12	128.0	128.0	50.109025848987805	-36.19301333344142	13.916012515546385	-605.0000721216288	
1.7388210713350222E12	128.0	128.0	50.10087610493614	-36.20621159150739	13.89466451342875	-605.0000721216288	
1.7388210713545513E12	128.0	128.0	50.100803983307365	-36.165534992877845	13.93526899042952	-605.0000721216288	
1.7388210713740803E12	128.0	128.0	50.09986640213328	-36.21558740324824	13.884278998885037	-605.0000721216288	
1.7388210713936094E12	128.0	128.0	50.11493982254742	-36.179598710489124	13.935341112058296	-605.0000721216288	
1.7388210714131384E12	128.0	128.0	50.104049456602276	-36.198783063743484	13.905266392858792	-605.0000721216288	
1.7388210714326672E12	128.0	128.0	50.11681498489559	-36.17527141276258	13.941543572133014	-605.0000721216288	
1.7388210714521963E12	128.0	128.0	50.11616589023661	-36.24032512191834	13.87584076831827	-605.0000721216288	
1.7388210714717253E12	128.0	128.0	50.125469580348685	-36.16935743920296	13.956112141145724	-605.0000721216288	
1.7388210714912544E12	128.0	128.0	50.115372552320075	-36.23635843233567	13.879014119984404	-605.0000721216288	
1.7388210715107834E12	128.0	128.0	50.10419369985983	-35.89291523610535	14.211278463754471	-605.0000721216288	
1.7388210715303125E12	128.0	128.0	50.11969985004662	-36.244868784531214	13.874831065515409	-605.0000721216288	
1.7388210715498416E12	128.0	128.0	50.11659862000926	-35.926091185342216	14.190507434667044	-605.0000721216288	
1.7388210715693706E12	128.0	128.0	50.12849868875727	-36.259725840059026	13.868772848698242	-605.0000721216288	
1.7388210715888997E12	128.0	128.0	50.12539745871991	-35.947367065831074	14.178030392888832	-605.0000721216288	
1.7388210716084285E12	128.0	128.0	50.130950824135645	-36.263331921497816	13.867618902637828	-605.0000721216288	
1.7388210716279575E12	128.0	128.0	50.13239325671116	-35.96215199973011	14.170241256981047	-605.0000721216288	
1.7388210716474866E12	128.0	128.0	50.131816283680955	-35.66753514618101	14.464281137499945	-605.0000721216288	
1.7388210716670156E12	128.0	128.0	50.124604120803376	-35.944410079051266	14.180194041752106	-605.0000721216288	
1.7388210716865447E12	128.0	128.0	50.13015748621911	-35.667463024552234	14.462694461666878	-605.0000721216288	
1.7388210717060737E12	128.0	128.0	50.1266235264091	-35.95948349946541	14.167140026943688	-605.0000721216288	
1.7388210717256028E12	128.0	128.0	50.1337635676579	-35.68859466178354	14.445168905874361	-605.0000721216288	
1.7388210717451318E12	128.0	128.0	50.14148058193691	-36.01083409915377	14.130646482783138	-605.0000721216288	
1.738821071764661E12	128.0	128.0	50.147899406897956	-35.706841433863815	14.441057973034141	-605.0000721216288	
1.7388210717841897E12	128.0	128.0	50.15114488019287	-35.795767402144364	14.355377478048501	-605.0000721216288	
1.7388210718037188E12	128.0	128.0	50.14696182572387	-35.685421310117405	14.461540515606465	-605.0000721216288	
1.7388210718232478E12	128.0	128.0	50.150495785533884	-35.77463576491306	14.375860020620827	-605.0000721216288	
1.7388210718427769E12	128.0	128.0	50.149269717844696	-35.70972629901485	14.43954341882985	-605.0000721216288	
1.738821071862306E12	128.0	128.0	50.152731556025934	-35.78329036036615	14.369441195659782	-605.0000721216288	
1.738821071881835E12	128.0	128.0	50.14609636617856	-35.7006389737891	14.445457392389464	-605.0000721216288	
1.738821071901364E12	128.0	128.0	50.155977029320844	-35.78559825248698	14.370378776833867	-605.0000721216288	
1.738821071920893E12	128.0	128.0	50.15915038098698	-35.73136278764758	14.427787593339396	-605.0000721216288	
1.738821071940422E12	128.0	128.0	50.1656413275768	-35.790430401614955	14.375210925961845	-605.0000721216288	
1.738821071959951E12	128.0	128.0	50.14371635242896	-36.08677817425468	14.05693817817428	-605.0000721216288	
1.73882107197948E12	128.0	128.0	50.13809086538445	-35.72617003037573	14.411920835008722	-605.0000721216288	
1.738821071999009E12	128.0	128.0	50.14047087913405	-36.09233153967042	14.048139339463633	-605.0000721216288	
1.738821072018538E12	128.0	128.0	50.14025451424772	-35.73157915253391	14.408675361713811	-605.0000721216288	
1.7388210720380671E12	128.0	128.0	50.13751389235424	-36.07567144342321	14.061842448931033	-605.0000721216288	
1.7388210720575962E12	128.0	128.0	50.14898123132959	-35.73713251794965	14.411848713379946	-605.0000721216288	
1.7388210720771252E12	128.0	128.0	50.14890910970082	-36.09521640482145	14.053692704879369	-605.0000721216288	
1.7388210720966543E12	128.0	128.0	50.14573575803468	-36.287853275281584	13.857882482753096	-605.0000721216288	
1.7388210721161833E12	128.0	128.0	50.15540005629064	-36.10480858144863	14.05059147484201	-605.0000721216288	
1.7388210721357122E12	128.0	128.0	50.14732243386775	-36.29016116740241	13.857161266465338	-605.0000721216288	
1.7388210721552412E12	128.0	128.0	50.15525581303309	-36.09233153967042	14.06292427336267	-605.0000721216288	
1.7388210721747703E12	128.0	128.0	50.1522267046245	-36.29506543815916	13.857161266465338	-605.0000721216288	
1.7388210721942993E12	128.0	128.0	50.15071215042021	-36.07855630857424	14.072155841845971	-605.0000721216288	
1.7388210722138284E12	128.0	128.0	50.14616848780734	-36.28193930172197	13.864229186085366	-605.0000721216288	
1.7388210722333574E12	128.0	128.0	50.159583110759634	-36.09370185061716	14.065881260142477	-605.0000721216288	
1.7388210722528865E12	128.0	128.0	50.15107275856409	-36.293478762326096	13.857593996237993	-605.0000721216288	
1.7388210722724155E12	128.0	128.0	50.15128912345042	-36.091177593610006	14.060111529840414	-605.0000721216288	
1.7388210722919446E12	128.0	128.0	50.16174675962291	-36.31720677819333	13.844539981429575	-605.0000721216288	
1.7388210723114734E12	128.0	128.0	50.15525581303309	-36.09961582417677	14.055639988856315	-605.0000721216288	
1.7388210723310024E12	128.0	128.0	50.173286220227034	-36.34028569940158	13.833000520825449	-605.0000721216288	
1.7388210723505315E12	128.0	128.0	50.164198895001284	-36.113463176901725	14.050735718099562	-605.0000721216288	
1.7388210723700605E12	128.0	128.0	50.17299773371193	-36.32167831917743	13.8513194145345	-605.0000721216288	
1.7388210723895896E12	128.0	128.0	50.17126681462131	-36.148586410115534	14.02268040450578	-605.0000721216288	
1.7388210724091187E12	128.0	128.0	50.177541396324806	-35.809109903467885	14.36843149285692	-605.0000721216288	
1.7388210724286477E12	128.0	128.0	50.17004074693212	-36.12211777235482	14.047922974577306	-605.0000721216288	
1.7388210724481768E12	128.0	128.0	50.17775776121113	-35.79273829373578	14.385019467475352	-605.0000721216288	
1.7388210724677056E12	128.0	128.0	50.17451228791622	-36.154572505303925	14.0199397826123	-605.0000721216288	
1.7388210724872346E12	128.0	128.0	50.176026842120514	-35.78841099600923	14.38761584611128	-605.0000721216288	
1.7388210725067637E12	128.0	128.0	50.17090620647743	-36.139138476745906	14.031767729731529	-605.0000721216288	
1.7388210725262927E12	128.0	128.0	50.1796329235593	-35.808100200665024	14.37153272289428	-605.0000721216288	
1.7388210725458218E12	128.0	128.0	50.19362451954181	-35.76922664275487	14.424397876786934	-605.0000721216288	
1.7388210725653508E12	128.0	128.0	50.18843176226995	-35.82887122975245	14.359560532517497	-605.0000721216288	
1.73882107258488E12	128.0	128.0	50.19838454704101	-35.77405879188285	14.424325755158158	-605.0000721216288	
1.738821072604409E12	128.0	128.0	50.1930475465116	-35.83305428422145	14.359993262290152	-605.0000721216288	
1.738821072623938E12	128.0	128.0	50.19730272260937	-35.7623029663924	14.434999756216975	-605.0000721216288	
1.7388210726434668E12	128.0	128.0	50.19506695211732	-35.84105978501556	14.354007167101761	-605.0000721216288	
1.7388210726629958E12	128.0	128.0	50.2022791149949	-35.757903547037074	14.444375567957827	-605.0000721216288	
1.738821072682525E12	128.0	128.0	50.1998991012453	-35.863417489936054	14.336481611309244	-605.0000721216288	
1.738821072702054E12	128.0	128.0	50.21324160256882	-35.758913249839935	14.454328352728886	-605.0000721216288	
1.738821072721583E12	128.0	128.0	50.209924007645135	-36.05872286066089	14.151201146984238	-605.0000721216288	
1.738821072741112E12	128.0	128.0	50.21684768400761	-35.76771208855058	14.44913559545703	-605.0000721216288	
1.738821072760641E12	128.0	128.0	50.21244826465229	-36.038456682974896	14.173991581677388	-605.0000721216288	
1.7388210727801702E12	128.0	128.0	50.21381857559903	-35.76590904783119	14.447909527767841	-605.0000721216288	
1.7388210727996992E12	128.0	128.0	50.21670344075006	-36.055116779222104	14.161586661527952	-605.0000721216288	
1.738821072819228E12	128.0	128.0	50.21381857559903	-35.755307168401146	14.458511407197882	-605.0000721216288	
1.738821072838757E12	128.0	128.0	50.21980467078742	-36.0527367654725	14.167067905314912	-605.0000721216288	
1.7388210728582861E12	128.0	128.0	50.20639004783512	-36.323625603154376	13.882764444680745	-605.0000721216288	
1.7388210728778152E12	128.0	128.0	50.21461191351556	-36.03052330380956	14.184088609705999	-605.0000721216288	
1.7388210728973442E12	128.0	128.0	50.21475615677311	-36.33473233398585	13.880023822787265	-605.0000721216288	
1.7388210729168733E12	128.0	128.0	50.222761657567226	-35.99698674642882	14.225774911138405	-605.0000721216288	
1.7388210729364023E12	128.0	128.0	50.21749677866659	-36.307181871793496	13.910314906873097	-605.0000721216288	
1.7388210729559314E12	128.0	128.0	50.19867303355611	-35.950612539125984	14.248060494430126	-605.0000721216288	
1.7388210729754604E12	128.0	128.0	50.18994631647424	-36.25655248839289	13.93339382808135	-605.0000721216288	
1.7388210729949893E12	128.0	128.0	50.186628721550555	-36.2139286057864	13.972700115764155	-605.0000721216288	
1.7388210730145183E12	128.0	128.0	50.19420149257201	-36.29492119490161	13.899280297670401	-605.0000721216288	
1.7388210730340474E12	128.0	128.0	50.18756630272464	-36.22453048521644	13.9630358175082	-605.0000721216288	
1.7388210730535764E12	128.0	128.0	50.21583798120475	-36.364590688299025	13.851247292905724	-605.0000721216288	
1.7388210730731055E12	128.0	128.0	50.24086418638995	-36.38096229803113	13.859901888358818	-605.0000721216288	
1.7388210730926345E12	128.0	128.0	50.25348547142571	-36.422648599463535	13.830836871962175	-605.0000721216288	
1.7388210731121636E12	128.0	128.0	50.24410965968486	-36.3512481869755	13.892861472709356	-605.0000721216288	
1.7388210731316926E12	128.0	128.0	50.25485578237245	-36.4013005973459	13.853555185026549	-605.0000721216288	
1.7388210731512217E12	128.0	128.0	50.251033336047335	-36.35889307962574	13.892140256421598	-605.0000721216288	
1.7388210731707505E12	128.0	128.0	50.25384607956959	-36.01206016684296	14.24178591272663	-605.0000721216288	
1.7388210731902795E12	128.0	128.0	50.25117757930489	-36.316269197019245	13.934908382285641	-605.0000721216288	
1.7388210732098086E12	128.0	128.0	50.24850907904018	-35.96236836461644	14.286140714423743	-605.0000721216288	
1.7388210732293376E12	128.0	128.0	50.25644245820552	-36.333073536524005	13.923368921681515	-605.0000721216288	
1.7388210732488667E12	128.0	128.0	50.25665882309185	-36.00549709862436	14.251161724467485	-605.0000721216288	
1.7388210732683958E12	128.0	128.0	50.26408735085575	-36.358243984966755	13.905843365888998	-605.0000721216288	
1.7388210732879248E12	128.0	128.0	50.262861283166565	-36.005569220253136	14.257292062913427	-605.0000721216288	
1.7388210733074539E12	128.0	128.0	50.27151587861966	-35.809470511611764	14.462045367007896	-605.0000721216288	
1.738821073326983E12	128.0	128.0	50.262500675022686	-36.015522005024195	14.246978669998489	-605.0000721216288	
1.7388210733465117E12	128.0	128.0	50.26466432388596	-35.79107949627394	14.473584827612022	-605.0000721216288	
1.7388210733660408E12	128.0	128.0	50.26452008062841	-36.02194082998524	14.242579250643166	-605.0000721216288	
1.7388210733855698E12	128.0	128.0	50.26790979718087	-35.79425284794007	14.473656949240798	-605.0000721216288	
1.7388210734050989E12	128.0	128.0	50.268847378354955	-36.037951831573466	14.230895546781486	-605.0000721216288	
1.738821073424628E12	128.0	128.0	50.27454498702824	-35.8084608088089	14.46608417821934	-605.0000721216288	
1.738821073444157E12	128.0	128.0	50.26466432388596	-36.016387464569505	14.248276859316453	-605.0000721216288	
1.738821073463686E12	128.0	128.0	50.27173224350599	-35.79360375328109	14.478128490224897	-605.0000721216288	
1.738821073483215E12	128.0	128.0	50.27512196005845	-35.98530304256714	14.289818917491308	-605.0000721216288	
1.7388210735027441E12	128.0	128.0	50.28060320384541	-35.83399186539553	14.446611338449877	-605.0000721216288	
1.738821073522273E12	128.0	128.0	50.27750197380805	-35.98003816366651	14.297463810141542	-605.0000721216288	
1.738821073541802E12	128.0	128.0	50.27728560892172	-35.82476029691223	14.452525312009492	-605.0000721216288	
1.738821073561331E12	128.0	128.0	50.283920798769095	-35.98371636673407	14.300204432035022	-605.0000721216288	
1.73882107358086E12	128.0	128.0	50.274184378884364	-35.82411120225325	14.450073176631115	-605.0000721216288	
1.7388210736003892E12	128.0	128.0	50.27916077126989	-35.97693693362915	14.302223837640744	-605.0000721216288	
1.7388210736199182E12	128.0	128.0	50.28363231225399	-36.33343414466788	13.950198167586109	-605.0000721216288	
1.7388210736394473E12	128.0	128.0	50.290267502101365	-35.98703396165776	14.303233540443605	-605.0000721216288	
1.7388210736589763E12	128.0	128.0	50.28327170411011	-36.33451596909952	13.948755735010593	-605.0000721216288	
1.7388210736785054E12	128.0	128.0	50.295532381002	-35.9818412043859	14.313691176616095	-605.0000721216288	
1.7388210736980342E12	128.0	128.0	50.28932992092728	-36.31807223773864	13.97125768318864	-605.0000721216288	
1.7388210737175632E12	128.0	128.0	50.29286388073729	-35.965181108138694	14.327682772598598	-605.0000721216288	
1.7388210737370923E12	128.0	128.0	50.29481116471424	-36.33422748258442	13.960583682129823	-605.0000721216288	
1.7388210737566213E12	128.0	128.0	50.28954628581361	-36.41810493685066	13.871441348962946	-605.0000721216288	
1.7388210737761504E12	128.0	128.0	50.29445055657036	-36.324346819442134	13.970103737128227	-605.0000721216288	
1.7388210737956794E12	128.0	128.0	50.29192629956321	-36.41334490935146	13.87858139021175	-605.0000721216288	
1.7388210738152085E12	128.0	128.0	50.29517177285812	-36.30364791198348	13.991523860874636	-605.0000721216288	
1.7388210738347375E12	128.0	128.0	50.29257539422219	-36.40714244927674	13.88543294494545	-605.0000721216288	
1.7388210738542666E12	128.0	128.0	50.30324939528101	-36.3146103995574	13.988638995723605	-605.0000721216288	
1.7388210738737954E12	128.0	128.0	50.29892209755446	-36.42293708597864	13.875985011575821	-605.0000721216288	
1.7388210738933245E12	128.0	128.0	50.30873063906797	-36.305306709445325	14.003423929622643	-605.0000721216288	
1.7388210739128535E12	128.0	128.0	50.295532381002	-36.41695099079025	13.87858139021175	-605.0000721216288	
1.7388210739323826E12	128.0	128.0	50.29257539422219	-36.1343784492467	14.15819694497549	-605.0000721216288	
1.7388210739519116E12	128.0	128.0	50.29394570516893	-36.40541153018612	13.888534174982809	-605.0000721216288	
1.7388210739714407E12	128.0	128.0	50.27360740585416	-36.081801781869146	14.191805623985008	-605.0000721216288	
1.7388210739909697E12	128.0	128.0	50.27800682520948	-36.3899775016281	13.888029323581378	-605.0000721216288	
1.7388210740104988E12	128.0	128.0	50.28074744710296	-36.1164922853103	14.164255161792656	-605.0000721216288	
1.7388210740300278E12	128.0	128.0	50.28997901558626	-36.41009943605655	13.879879579529714	-605.0000721216288	
1.7388210740495566E12	128.0	128.0	50.27887228475479	-36.12132443443828	14.157547850316508	-605.0000721216288	
1.7388210740690857E12	128.0	128.0	50.28586808274604	-35.82721243229061	14.458655650455434	-605.0000721216288	
1.7388210740886147E12	128.0	128.0	50.28327170411011	-36.158034343485156	14.125237360624954	-605.0000721216288	
1.7388210741081438E12	128.0	128.0	50.283776555511544	-35.86320112504973	14.420575430461817	-605.0000721216288	
1.7388210741276729E12	128.0	128.0	50.28637293414747	-36.184719346132205	14.10165358801527	-605.0000721216288	
1.738821074147202E12	128.0	128.0	50.2863008125187	-35.863056881792176	14.423243930726521	-605.0000721216288	
1.738821074166731E12	128.0	128.0	50.29560450263077	-36.18868603571487	14.106918466915902	-605.0000721216288	
1.73882107418626E12	128.0	128.0	50.30245605736447	-35.89450191193842	14.407954145426054	-605.0000721216288	
1.738821074205789E12	128.0	128.0	50.30779305789388	-35.92161964435812	14.386173413535765	-605.0000721216288	
1.7388210742253179E12	128.0	128.0	50.30317727365223	-35.876615748002024	14.426561525650207	-605.0000721216288	
1.738821074244847E12	128.0	128.0	50.30779305789388	-35.8972425338319	14.410550524061982	-605.0000721216288	
1.738821074264376E12	128.0	128.0	50.30202332759182	-35.87827454546387	14.423748782127952	-605.0000721216288	
1.738821074283905E12	128.0	128.0	50.309812463499604	-35.90344499390662	14.406367469592986	-605.0000721216288	
1.738821074303434E12	128.0	128.0	50.309812463499604	-35.88952551955289	14.420286943946714	-605.0000721216288	
1.7388210743229631E12	128.0	128.0	50.30880276069674	-35.89471827682475	14.414084483871996	-605.0000721216288	
1.7388210743424922E12	128.0	128.0	50.30822578766654	-35.906257737428874	14.401968050237663	-605.0000721216288	
1.7388210743620212E12	128.0	128.0	50.311615504219	-35.881736383645105	14.429879120573894	-605.0000721216288	
1.7388210743815503E12	128.0	128.0	50.31067792304491	-36.22691049896604	14.083767424078873	-605.0000721216288	
1.738821074401079E12	128.0	128.0	50.30966822024205	-35.878635153607746	14.431033066634306	-605.0000721216288	
1.7388210744206082E12	128.0	128.0	50.32466951902742	-36.25078275809083	14.07388676093659	-605.0000721216288	
1.7388210744401372E12	128.0	128.0	50.3253186136864	-35.9198887252675	14.405429888418901	-605.0000721216288	
1.7388210744596663E12	128.0	128.0	50.333756844253166	-36.263331921497816	14.070424922755352	-605.0000721216288	
1.7388210744791953E12	128.0	128.0	50.33022288444315	-35.901930439702326	14.428292444740826	-605.0000721216288	
1.7388210744987244E12	128.0	128.0	50.33700231754808	-36.25193670415124	14.085065613396837	-605.0000721216288	
1.7388210745182534E12	128.0	128.0	50.32423678925476	-36.45654576498816	13.867691024266604	-605.0000721216288	
1.7388210745377825E12	128.0	128.0	50.331376830503565	-36.2458063657053	14.085570464798268	-605.0000721216288	
1.7388210745573115E12	128.0	128.0	50.32438103251231	-36.46260398180532	13.861777050706989	-605.0000721216288	
1.7388210745768403E12	128.0	128.0	50.3321701684201	-36.21594801139212	14.116222157027979	-605.0000721216288	
1.7388210745963694E12	128.0	128.0	50.32892469512519	-36.480706510628046	13.84821818449714	-605.0000721216288	
1.7388210746158984E12	128.0	128.0	50.332602898192754	-36.206860686166365	14.125742212026385	-605.0000721216288	
1.7388210746354275E12	128.0	128.0	50.331016222359686	-36.47580223987129	13.855213982488392	-605.0000721216288	
1.7388210746549565E12	128.0	128.0	50.336858074290525	-36.219842579346015	14.117015494944512	-605.0000721216288	
1.7388210746744856E12	128.0	128.0	50.328491965352534	-36.46245973854777	13.86603222680476	-605.0000721216288	
1.7388210746940146E12	128.0	128.0	50.321279802474955	-36.286627207592396	14.03465259488256	-605.0000721216288	
1.7388210747135437E12	128.0	128.0	50.32495800554252	-36.452290588890385	13.872667416652135	-605.0000721216288	
1.7388210747330728E12	128.0	128.0	50.32459739739864	-36.322255292207636	14.002342105191007	-605.0000721216288	
1.7388210747526016E12	128.0	128.0	50.33714656080563	-36.48625987604378	13.850886684761845	-605.0000721216288	
